MYO1C_MOUSE
Unconventional myosin-Ic OS=Mus musculus OX=10090 GN=Myo1c PE=1 SV=2
, , , , , , , , , , , ,Kidney_FASP_2h_K0, , , , , , , , , , , , , , , ,Kidney_FASP_2h_K1, , , , , , , , , , , , , , , ,Kidney_FASP_2h_K2, , , , , , , , , , , , , , , ,Kidney_FASP_2h_K3, , , , , , , , , , , , , , , ,Kidney_FASP_2h_K6, , , , , , , , , , , , , , , ,Kidney_FASP_2h_K7, , , , , , , , , , , , , , , ,Kidney_FASP_2h_K9, , , , , , , , , , , , , , , ,Kidney_FASP_2h_K13, , , , , , , , , , , , , , , ,Kidney_FASP_2h_K16, , , , , , , , , , , , , , , ,Kidney_FASP_2h_K21, , , , , , , , , , , , , , , ,Kidney_FASP_2h_K24, , , , , , , , , , , , , , , ,Kidney_FASP_2h_K31, , , , , , , , , , , , , , , , 
Peptide, UniqueToProtein, Exchangeable Hydrogens, Charge, m/z(Sequence), M0, M1, M2, M3, M4, M5, Total Labeling, m/z(Precursor), IonScore, Expectn, Error(ppm), Scan, I0, I1, I2, I3, I4, I5, Start Elution (min), End Elution (min), I0 Peak Width, Total Labeling, Net Labeling,m/z(Precursor), IonScore, Expectn, Error(ppm), Scan, I0, I1, I2, I3, I4, I5, Start Elution (min), End Elution (min), I0 Peak Width, Total Labeling, Net Labeling,m/z(Precursor), IonScore, Expectn, Error(ppm), Scan, I0, I1, I2, I3, I4, I5, Start Elution (min), End Elution (min), I0 Peak Width, Total Labeling, Net Labeling,m/z(Precursor), IonScore, Expectn, Error(ppm), Scan, I0, I1, I2, I3, I4, I5, Start Elution (min), End Elution (min), I0 Peak Width, Total Labeling, Net Labeling,m/z(Precursor), IonScore, Expectn, Error(ppm), Scan, I0, I1, I2, I3, I4, I5, Start Elution (min), End Elution (min), I0 Peak Width, Total Labeling, Net Labeling,m/z(Precursor), IonScore, Expectn, Error(ppm), Scan, I0, I1, I2, I3, I4, I5, Start Elution (min), End Elution (min), I0 Peak Width, Total Labeling, Net Labeling,m/z(Precursor), IonScore, Expectn, Error(ppm), Scan, I0, I1, I2, I3, I4, I5, Start Elution (min), End Elution (min), I0 Peak Width, Total Labeling, Net Labeling,m/z(Precursor), IonScore, Expectn, Error(ppm), Scan, I0, I1, I2, I3, I4, I5, Start Elution (min), End Elution (min), I0 Peak Width, Total Labeling, Net Labeling,m/z(Precursor), IonScore, Expectn, Error(ppm), Scan, I0, I1, I2, I3, I4, I5, Start Elution (min), End Elution (min), I0 Peak Width, Total Labeling, Net Labeling,m/z(Precursor), IonScore, Expectn, Error(ppm), Scan, I0, I1, I2, I3, I4, I5, Start Elution (min), End Elution (min), I0 Peak Width, Total Labeling, Net Labeling,m/z(Precursor), IonScore, Expectn, Error(ppm), Scan, I0, I1, I2, I3, I4, I5, Start Elution (min), End Elution (min), I0 Peak Width, Total Labeling, Net Labeling,m/z(Precursor), IonScore, Expectn, Error(ppm), Scan, I0, I1, I2, I3, I4, I5, Start Elution (min), End Elution (min), I0 Peak Width, Total Labeling, Net Labeling
FDEVLIR,Yes, 11, 2,  446.25036,58.716,30.007,8.925,1.949,0.343,0.051,55.336, 446.25056,   27.81000, 8.400000e-03, -0.5, 25366,3.459316e+07,1.942774e+07,6.378006e+06,0.000000e+00,0.000000e+00,0.000000e+00,45.129940, 46.794155,0.000100,0.359634,0.045436, 446.25121,   35.37000, 4.000000e-03, -1.9, 25309,2.681370e+07,1.635218e+07,5.478059e+06,1.420990e+05,9.231910e+05,0.000000e+00,45.147385, 46.612534,0.000100,0.378822,0.101805, 446.25161,   31.85000, 5.200000e-03, -2.8, 25011,3.649128e+07,2.590052e+07,9.294681e+06,1.927720e+06,5.227516e+05,5.622530e+05,45.541958, 45.737976,0.000100,0.415127,0.174947, 446.25097,   34.86000, 3.500000e-03, -1.4, 24812,4.364027e+07,2.729689e+07,1.289412e+07,2.676324e+06,7.316317e+05,4.195420e+05,45.641342, 46.270683,0.000100,0.384804,0.161933, 446.25106,   37.72000, 2.200000e-03, -1.6, 24847,2.673499e+07,2.079895e+07,1.103113e+07,1.722996e+06,4.717464e+05,1.287079e+05,45.723118, 46.390728,0.000100,0.437560,0.267059, 446.25139,   34.47000, 3.200000e-03, -2.3, 24675,2.657377e+07,2.278177e+07,1.078563e+07,2.837200e+06,7.768133e+05,0.000000e+00,44.805820, 46.356956,0.000100,0.461585,0.294151, 446.75259,   38.96000, 2.700000e-03, -1126.7, 24448,2.794157e+07,2.403202e+07,1.160580e+07,4.234649e+06,1.159430e+06,1.846300e+05,45.326454, 46.044273,0.000100,0.462389,0.313009, 446.25056,    0.00000, 0.000000e+00, -0.5, 25366,3.587044e+07,3.280318e+07,2.026763e+07,5.912523e+06,1.618825e+06,4.758620e+05,45.307304, 45.905800,0.000100,0.477668,0.375490, 446.25056,    0.00000, 0.000000e+00, -0.5, 25366,2.289668e+07,2.235808e+07,1.490272e+07,3.417040e+06,9.355721e+05,3.205030e+05,45.243233, 46.104576,0.000100,0.494049,0.410843, 446.25140,   38.22000, 2.300000e-03, -2.3, 24637,2.702076e+07,2.736792e+07,1.454428e+07,4.247282e+06,1.162889e+06,3.499080e+05,44.493069, 46.279404,0.000100,0.503191,0.386942, 446.25056,    0.00000, 0.000000e+00, -0.5, 25366,2.659684e+07,3.485152e+07,1.702308e+07,5.671048e+06,1.552711e+06,4.190660e+05,45.334846, 46.198830,0.000100,0.567168,0.474767, 446.25056,     0.00000, 0.000000e+00, -0.5, 25366, 2.463266e+07,2.663515e+07,1.617842e+07,6.065798e+06,1.660792e+06,3.290810e+05,45.223621, 45.719147,0.000100,0.519530,0.445009,
PQDGVAVLVR,Yes, 20, 2,  527.30620,54.347,31.777,10.654,2.609,0.514,0.086,63.392, 527.30616,   38.59000, 9.100000e-04,  0.1, 21593,2.957588e+07,1.602864e+07,6.427091e+06,1.016355e+06,0.000000e+00,0.000000e+00,39.921139, 40.477333,0.000100,0.351470,0.011149, 527.30675,   47.98000, 2.500000e-04, -1.0, 21535,1.515477e+07,8.771771e+06,3.743704e+06,7.560530e+05,0.000000e+00,0.000000e+00,39.924381, 40.527763,0.000100,0.366613,0.035252, 527.30616,    0.00000, 0.000000e+00,  0.1, 21593,2.035942e+07,1.578098e+07,2.480905e+07,1.536240e+07,5.374471e+06,1.678074e+06,39.606129, 40.347881,0.000100,0.436658,0.554109, 527.30730,   45.87000, 2.700000e-04, -2.1, 21048,2.802997e+07,2.385024e+07,2.060367e+07,1.197527e+07,3.223034e+06,7.287990e+05,39.733822, 40.398052,0.000100,0.459718,0.423360, 527.80825,   32.79000, 2.600000e-03, -953.0, 21099,1.662758e+07,1.302818e+07,8.755404e+06,3.188227e+06,5.086470e+05,1.623830e+05,39.787449, 40.416031,0.000100,0.439314,0.286850, 527.80975,   38.85000, 8.900000e-04, -955.9, 20941,1.642274e+07,1.786727e+07,9.931391e+06,6.123779e+06,1.644390e+06,3.174180e+05,39.715195, 40.339207,0.000100,0.521064,0.430329, 527.30649,   41.20000, 8.400000e-04, -0.5, 20659,1.857114e+07,1.884878e+07,2.290927e+07,1.187922e+07,4.636511e+06,1.942538e+06,39.381897, 40.061142,0.000100,0.503710,0.571086, 527.80939,   43.02000, 2.300000e-04, -955.2, 20679,1.940158e+07,2.352456e+07,2.652525e+07,1.375423e+07,5.368333e+06,2.249146e+06,39.760609, 39.968021,0.000100,0.548024,0.611305, 527.30616,    0.00000, 0.000000e+00,  0.1, 21593,1.167660e+07,1.427713e+07,1.871372e+07,9.703692e+06,3.787391e+06,1.586787e+06,39.718273, 39.923325,0.000100,0.550099,0.644672, 527.81036,   24.49000, 6.500000e-03, -957.0, 20860,1.631398e+07,2.180065e+07,1.377879e+07,1.084452e+07,4.572073e+06,1.764923e+06,39.709412, 39.858952,0.000100,0.571976,0.570168, 527.81073,   25.33000, 1.500000e-02, -957.7, 20986,1.169807e+07,1.449002e+07,1.890365e+07,9.802179e+06,3.825831e+06,1.602891e+06,39.752537, 40.192722,0.000100,0.553306,0.647427, 527.30616,     0.00000, 0.000000e+00,  0.1, 21593, 7.916220e+06,1.143242e+07,2.092212e+07,1.084882e+07,4.234340e+06,1.774043e+06,39.774296, 39.920456,0.000100,0.590864,0.748574,
LLGVEGTTLR,Yes, 14, 2,  529.81386,54.392,31.649,10.682,2.644,0.528,0.089,63.505, 529.81488,   47.03000, 5.200000e-03, -1.9, 25564,6.032699e+07,3.231600e+07,1.005645e+07,2.478112e+06,0.000000e+00,0.000000e+00,46.114719, 46.283318,0.000100,0.348823,-0.000000, 529.81488,    0.00000, 0.000000e+00, -1.9, 25564,4.258394e+07,2.510852e+07,8.457627e+06,1.478431e+06,0.000000e+00,0.000000e+00,46.166618, 46.364857,0.000100,0.370921,0.003609, 530.31696,   52.23000, 1.300000e-03, -950.5, 25196,6.032484e+07,3.846658e+07,1.464840e+07,2.850563e+06,0.000000e+00,0.000000e+00,45.820450, 45.989563,0.000100,0.389372,0.057008, 529.81488,    0.00000, 0.000000e+00, -1.9, 25564,5.592036e+07,3.948572e+07,1.550664e+07,3.758958e+06,1.931480e+05,0.000000e+00,45.968483, 46.338078,0.000100,0.413870,0.112867, 529.81488,    0.00000, 0.000000e+00, -1.9, 25564,3.354240e+07,2.401201e+07,1.094421e+07,2.644158e+06,5.668670e+05,0.000000e+00,45.976196, 46.199059,0.000100,0.417205,0.148992, 530.31684,   41.38000, 4.400000e-03, -950.3, 24878,5.488098e+07,4.025958e+07,1.871104e+07,4.999166e+06,1.639965e+06,5.581708e+05,45.894592, 46.672997,0.000100,0.423159,0.171297, 530.31948,   49.38000, 1.300000e-03, -955.2, 24619,3.864192e+07,3.281420e+07,1.767082e+07,4.300826e+06,8.715070e+05,0.000000e+00,45.613396, 45.815456,0.000100,0.459222,0.260092, 529.81488,    0.00000, 0.000000e+00, -1.9, 25564,6.393242e+07,5.226691e+07,2.875749e+07,9.493625e+06,1.709806e+06,4.980010e+05,45.557880, 46.126694,0.000100,0.449804,0.256433, 529.81488,    0.00000, 0.000000e+00, -1.9, 25564,2.930295e+07,3.269174e+07,1.885436e+07,7.072214e+06,2.222868e+06,0.000000e+00,45.506241, 45.736416,0.000100,0.527331,0.404799, 530.31831,   35.01000, 7.600000e-03, -953.1, 24824,2.888366e+07,3.009113e+07,1.561839e+07,5.894610e+06,1.072541e+06,1.065540e+05,45.536743, 45.748215,0.000100,0.510237,0.353822, 529.81554,   42.45000, 1.500000e-02, -3.2, 25026,3.295161e+07,3.448324e+07,2.124471e+07,7.623139e+06,1.422747e+06,1.139750e+05,45.619465, 45.823284,0.000100,0.511356,0.388502, 529.81488,     0.00000, 0.000000e+00, -1.9, 25564, 2.903824e+07,3.177933e+07,1.986847e+07,6.410699e+06,1.694328e+06,0.000000e+00,45.491707, 45.687817,0.000100,0.522535,0.406983,
DNYPQSVPR,Yes, 19, 2,  538.26198,54.174,31.632,10.811,2.718,0.553,0.095,64.098, 538.26284,   26.60000, 3.400000e-03, -1.6, 14197,2.001205e+08,1.041607e+08,3.511296e+07,9.712589e+06,1.225245e+06,0.000000e+00,30.307865, 30.458759,0.000100,0.342317,0.000000, 538.26300,   30.60000, 1.600000e-03, -1.9, 14174,1.280453e+08,8.026031e+07,2.898943e+07,9.246926e+06,3.257171e+06,1.367604e+06,29.807753, 30.558809,0.000100,0.385301,0.061301, 538.26336,   25.77000, 5.600000e-03, -2.6, 13947,1.348624e+08,8.683420e+07,3.164458e+07,9.514620e+06,2.999264e+06,1.044192e+06,30.075068, 30.221384,0.000100,0.391680,0.068736, 538.26284,    0.00000, 0.000000e+00, -1.6, 14197,1.671012e+08,1.020128e+08,4.289338e+07,1.373905e+07,3.849211e+06,1.332051e+06,30.125301, 30.266541,0.000100,0.379069,0.069530, 538.26218,   23.57000, 6.200000e-03, -0.4, 13822,1.322423e+08,9.519490e+07,4.574914e+07,1.527382e+07,4.402697e+06,8.374310e+05,30.224728, 30.348280,0.000100,0.418555,0.169984, 538.26299,   21.40000, 9.800000e-03, -1.9, 13693,1.332265e+08,1.012786e+08,4.875289e+07,1.696064e+07,5.647737e+06,8.011860e+05,30.144882, 30.296141,0.000100,0.431882,0.199994, 538.26284,    0.00000, 0.000000e+00, -1.6, 14197,1.344353e+08,1.090393e+08,5.988282e+07,2.252152e+07,8.471175e+06,2.316437e+06,29.860874, 30.016342,0.000100,0.447847,0.265042, 538.26284,    0.00000, 0.000000e+00, -1.6, 14197,1.179692e+08,1.028211e+08,6.069662e+07,2.489102e+07,8.887834e+06,2.405446e+06,29.789055, 29.937687,0.000100,0.465696,0.316326, 538.26284,    0.00000, 0.000000e+00, -1.6, 14197,1.170817e+08,1.167835e+08,7.415122e+07,3.166972e+07,1.099001e+07,2.849664e+06,29.667982, 29.835695,0.000100,0.499363,0.390317, 538.26284,    0.00000, 0.000000e+00, -1.6, 14197,1.209045e+08,1.289191e+08,7.578987e+07,3.288939e+07,1.088730e+07,2.558353e+06,29.582851, 29.763851,0.000100,0.516040,0.401352, 538.26284,    0.00000, 0.000000e+00, -1.6, 14197,1.330523e+08,1.225708e+08,7.758856e+07,3.488957e+07,1.149326e+07,3.134502e+06,29.681673, 29.996519,0.000100,0.479498,0.359802, 538.76123,    18.23000, 1.900000e-02, -928.4, 13915, 2.134772e+08,1.852931e+08,1.204289e+08,5.078635e+07,1.620076e+07,5.614572e+06,29.792124, 30.050411,0.000100,0.464661,0.336740,
YLGLMENLR,Yes, 14, 2,  554.79459,50.131,31.215,13.178,4.155,1.051,0.223,75.354, 554.79813,   53.45000, 8.200000e-05, -6.4, 32385,3.794321e+07,2.423283e+07,7.377527e+06,1.459996e+06,0.000000e+00,0.000000e+00,55.035282, 56.134491,0.000100,0.389745,-0.000000, 554.79626,   57.83000, 4.300000e-05, -3.0, 32307,2.220082e+07,2.139088e+07,8.558273e+06,2.535091e+06,3.070730e+05,1.194094e+05,55.578308, 56.597836,0.000100,0.490710,0.219017, 554.79701,   53.82000, 7.900000e-05, -4.4, 32001,3.510947e+07,2.523170e+07,1.041229e+07,4.340762e+06,6.906290e+05,0.000000e+00,54.876198, 56.461906,0.000100,0.418151,0.084251, 554.79665,   58.07000, 4.300000e-05, -3.7, 31766,3.043428e+07,2.635911e+07,1.174106e+07,4.198922e+06,1.066667e+06,4.872560e+05,54.863247, 56.448433,0.000100,0.464123,0.189443, 554.79680,   57.57000, 3.900000e-05, -4.0, 31808,2.206175e+07,1.815129e+07,8.290704e+06,1.939325e+06,2.293210e+05,0.000000e+00,55.468250, 55.994297,0.000100,0.451378,0.153655, 555.29726,   52.84000, 8.800000e-05, -906.9, 31637,2.300280e+07,2.346720e+07,1.027183e+07,2.913995e+06,4.066230e+05,0.000000e+00,55.094131, 55.964764,0.000100,0.504997,0.258363, 555.29804,   37.02000, 1.900000e-03, -908.3, 31434,2.809321e+07,2.271289e+07,1.324984e+07,4.698792e+06,1.048549e+06,4.361243e+05,54.664913, 55.732304,0.000100,0.447050,0.210873, 555.29722,   57.27000, 3.500000e-05, -906.8, 31443,2.554707e+07,2.666162e+07,1.399839e+07,6.343678e+06,1.438602e+06,5.983595e+05,55.454571, 56.284351,0.000100,0.510674,0.321259, 555.29980,   26.75000, 9.400000e-03, -911.5, 31524,1.709337e+07,2.095619e+07,1.125259e+07,6.662001e+06,2.171409e+06,9.061830e+05,54.527100, 56.178959,0.000100,0.550760,0.427941, 555.29968,   36.96000, 1.700000e-03, -911.2, 31599,1.874494e+07,1.735683e+07,8.911901e+06,4.576015e+06,1.697124e+06,3.335510e+05,55.102192, 55.712738,0.000100,0.480775,0.280853, 555.29876,   36.19000, 8.100000e-04, -909.6, 31707,2.341822e+07,2.505912e+07,1.503923e+07,6.802496e+06,2.267578e+06,1.243503e+06,54.639740, 55.638420,0.000100,0.516924,0.374161, 555.29980,    39.13000, 5.300000e-04, -911.5, 31584, 1.329929e+07,1.367732e+07,1.090951e+07,3.173793e+06,4.905170e+05,1.981920e+05,54.485062, 55.359703,0.000100,0.507007,0.390136,
MSLLQLVEILR,Yes, 19, 2,  657.89431,44.129,32.957,15.501,5.435,1.530,0.361,88.190, 657.89506,   40.56000, 6.400000e-04, -1.1, 54048,1.456863e+07,9.913121e+06,4.110907e+06,1.143921e+06,4.631300e+04,0.000000e+00,88.492523, 88.813210,0.000100,0.404919,0.000000, 657.89506,    0.00000, 0.000000e+00, -1.1, 54048,3.250127e+06,2.305626e+06,1.125181e+06,1.254210e+05,2.985700e+04,1.468568e+04,88.706375, 89.020874,0.000100,0.414998,-0.000000, 657.89491,   29.24000, 9.500000e-03, -0.9, 53696,6.309402e+06,5.199222e+06,2.518628e+06,1.280617e+06,5.979800e+04,3.160791e+04,88.302979, 88.604889,0.000100,0.451767,0.084340, 657.89580,   19.08000, 3.300000e-02, -2.3, 53339,1.069441e+07,8.843694e+06,4.382429e+06,1.749251e+06,3.697010e+05,2.083200e+05,88.238579, 88.653671,0.000100,0.452638,0.083526, 657.89566,   29.14000, 1.400000e-02, -2.0, 53286,6.414722e+06,5.915361e+06,3.823336e+06,1.594560e+06,2.394750e+05,3.768400e+04,88.241516, 88.616173,0.000100,0.479750,0.212623, 657.89506,    0.00000, 0.000000e+00, -1.1, 54048,5.378871e+06,5.271112e+06,3.482186e+06,1.473610e+06,3.081730e+05,1.117310e+05,88.230217, 88.673477,0.000100,0.494941,0.252574, 657.89443,   32.78000, 2.100000e-02, -0.2, 52988,7.575356e+06,7.730383e+06,5.873334e+06,2.515715e+06,7.384070e+05,2.646600e+04,88.181244, 88.537819,0.000100,0.505064,0.316661, 657.89506,    0.00000, 0.000000e+00, -1.1, 54048,6.502334e+06,8.093003e+06,5.893656e+06,2.713590e+06,1.151997e+06,1.231680e+05,88.110847, 88.479485,0.000100,0.554492,0.403159, 657.89506,    0.00000, 0.000000e+00, -1.1, 54048,4.031739e+06,5.224343e+06,4.069214e+06,2.173420e+06,8.113230e+05,1.123200e+05,87.980843, 88.326561,0.000100,0.564423,0.450727, 657.89506,    0.00000, 0.000000e+00, -1.1, 54048,4.420978e+06,6.331594e+06,4.351749e+06,1.964356e+06,7.206670e+05,7.766700e+04,87.988663, 88.367599,0.000100,0.588845,0.444883, 657.89506,    0.00000, 0.000000e+00, -1.1, 54048,4.110716e+06,5.507531e+06,4.343083e+06,2.111123e+06,9.052300e+05,1.352120e+05,87.997032, 88.312035,0.000100,0.572613,0.460175, 657.89506,     0.00000, 0.000000e+00, -1.1, 54048, 6.545481e+06,1.004861e+07,7.545017e+06,4.281749e+06,1.998175e+06,5.358730e+05,87.748207, 88.089462,0.000100,0.605553,0.525844,
DQAVMISGESGAGK,Yes, 32, 2,  675.32191,45.934,31.898,14.968,5.251,1.498,0.362,85.387, 675.32344,   69.17000, 3.500000e-06, -2.3, 16354,1.647692e+07,1.109963e+07,3.562187e+06,8.224300e+05,4.096170e+05,0.000000e+00,32.725956, 32.829197,0.000100,0.402502,-0.000000, 675.32344,    0.00000, 0.000000e+00, -2.3, 16354,1.216324e+07,8.883177e+06,3.406957e+06,7.365050e+05,2.589120e+05,0.000000e+00,32.721111, 32.843433,0.000100,0.422076,0.000000, 675.32406,   69.45000, 1.600000e-06, -3.2, 16026,1.107696e+07,9.193544e+06,4.102726e+06,1.095741e+06,6.371455e+05,1.760640e+05,32.493336, 32.616405,0.000100,0.453543,0.096339, 675.82452,   50.06000, 6.800000e-05, -744.8, 15835,1.350130e+07,1.116867e+07,5.841468e+06,2.844865e+06,1.929686e+06,1.533860e+05,32.533569, 32.923630,0.000100,0.452723,0.184143, 675.32465,   60.07000, 2.400000e-05, -4.1, 15896,9.404901e+06,9.442939e+06,6.101158e+06,3.996416e+06,1.417157e+06,1.568560e+05,32.663586, 32.970772,0.000100,0.501009,0.343894, 675.82538,   34.27000, 4.000000e-03, -746.1, 15765,7.088461e+06,7.858929e+06,6.297528e+06,3.299902e+06,1.450862e+06,2.758010e+05,32.583164, 32.703228,0.000100,0.525773,0.417796, 675.82556,   64.35000, 2.900000e-06, -746.3, 15535,5.683976e+06,6.315591e+06,4.484483e+06,3.208584e+06,1.387425e+06,2.971660e+05,32.264561, 32.368057,0.000100,0.526318,0.433252, 675.32344,    0.00000, 0.000000e+00, -2.3, 16354,7.541504e+06,1.034999e+07,9.290608e+06,5.258008e+06,3.540350e+06,3.019910e+05,32.259010, 32.604176,0.000100,0.578487,0.559643, 675.82410,   47.56000, 4.700000e-05, -744.2, 15807,4.651902e+06,6.604494e+06,5.468557e+06,3.714343e+06,1.365992e+06,4.131520e+05,32.220554, 32.343891,0.000100,0.586733,0.553454, 675.82629,   37.24000, 2.900000e-03, -747.4, 15779,3.943681e+06,5.159113e+06,4.493508e+06,3.385719e+06,1.202224e+06,2.034620e+05,32.147690, 32.461575,0.000100,0.566761,0.547974, 675.82648,   24.68000, 6.900000e-03, -747.7, 15880,3.900381e+06,6.800248e+06,5.534420e+06,4.563819e+06,2.312340e+06,4.567730e+05,32.253937, 32.358501,0.000100,0.635500,0.649780, 675.32344,     0.00000, 0.000000e+00, -2.3, 16354, 2.641794e+06,3.909912e+06,4.352530e+06,2.857873e+06,1.640735e+06,4.793650e+05,32.353210, 32.637253,0.000100,0.596778,0.645872,
TLFATEDSLEVR,Yes, 22, 2,  690.85390,45.335,34.041,14.605,4.570,1.150,0.245,82.786, 690.85662,   59.44000, 7.000000e-06, -3.9, 30358,2.740405e+07,2.082300e+07,8.328384e+06,6.060620e+05,0.000000e+00,0.000000e+00,52.442280, 53.957161,0.000100,0.431770,0.000000, 690.85645,   68.42000, 9.300000e-07, -3.7, 30166,2.908837e+07,2.402659e+07,1.180617e+07,2.564897e+06,0.000000e+00,0.000000e+00,52.435272, 53.925236,0.000100,0.452351,0.071903, 690.85790,   60.35000, 1.300000e-05, -5.8, 29995,2.608356e+07,2.192102e+07,3.546953e+07,2.696293e+07,1.224566e+07,4.776324e+06,52.772182, 53.409790,0.000100,0.456644,0.556343, 691.35968,   63.16000, 6.700000e-06, -732.6, 29754,2.162192e+07,2.008747e+07,1.245871e+07,4.497461e+06,6.729300e+05,0.000000e+00,52.198189, 53.756657,0.000100,0.481605,0.215676, 691.35706,   57.03000, 2.100000e-05, -728.8, 29840,1.529229e+07,1.501078e+07,9.441263e+06,4.931185e+06,5.896430e+05,3.173242e+05,52.286350, 53.054123,0.000100,0.495355,0.268748, 691.35901,   56.50000, 5.000000e-06, -731.7, 29602,2.067988e+07,1.855501e+07,2.653034e+07,2.419852e+07,1.425072e+07,7.185926e+06,52.181900, 53.458866,0.000100,0.472921,0.604951, 691.35699,   60.36000, 3.500000e-06, -728.7, 29462,1.601182e+07,1.714069e+07,1.118806e+07,5.299622e+06,2.050239e+06,4.732730e+05,51.953030, 53.537312,0.000100,0.517025,0.326021, 691.35938,   55.51000, 6.300000e-06, -732.2, 29469,1.765028e+07,2.187085e+07,1.435998e+07,7.219430e+06,2.964988e+06,8.894710e+05,51.877102, 53.516930,0.000100,0.553396,0.403997, 691.86054,   27.59000, 5.800000e-03, -1458.1, 29560,9.574505e+06,1.334015e+07,1.300260e+07,1.088339e+07,5.069945e+06,2.728510e+06,51.817848, 53.391979,0.000100,0.582167,0.625503, 691.35900,   59.86000, 2.600000e-06, -731.6, 29623,1.287341e+07,1.772774e+07,1.332508e+07,6.202157e+06,2.344796e+06,5.097220e+05,51.978649, 53.425102,0.000100,0.579316,0.466825, 691.36197,   25.04000, 1.300000e-02, -736.0, 29693,1.728322e+07,1.982548e+07,1.516373e+07,8.120722e+06,2.694147e+06,1.696953e+06,51.874229, 53.517555,0.000100,0.534254,0.423798, 691.36108,    55.91000, 5.700000e-06, -734.7, 29690, 1.392056e+07,1.845477e+07,1.289647e+07,6.582862e+06,2.943835e+06,9.672230e+05,51.741161, 52.732025,0.000100,0.570026,0.453720,
cPENAFFLDHVR,Yes, 24, 3,  502.23824,40.714,33.539,16.909,6.329,1.903,0.480,96.360, 502.23914,   30.19000, 1.500000e-03, -1.8, 26940,6.590188e+06,4.846586e+06,2.165831e+06,8.107086e+05,4.137460e+05,1.315931e+05,48.048294, 48.146145,0.000100,0.423772,0.016340, 502.23914,    0.00000, 0.000000e+00, -1.8, 26940,1.980814e+06,1.432185e+06,9.256740e+05,6.212380e+05,2.977700e+05,0.000000e+00,48.299870, 48.348846,0.000100,0.419627,0.145506, 502.24025,   22.49000, 9.600000e-03, -4.0, 26534,6.368231e+06,5.341869e+06,2.462004e+06,1.461255e+06,0.000000e+00,0.000000e+00,47.742271, 47.866196,0.000100,0.456176,0.016609, 502.23919,   29.55000, 1.700000e-03, -1.9, 26360,5.236873e+06,5.028194e+06,4.686795e+06,5.301320e+05,1.606900e+05,0.000000e+00,47.843647, 47.990650,0.000100,0.489835,0.235278, 502.23914,    0.00000, 0.000000e+00, -1.8, 26940,4.220504e+06,1.532439e+06,1.313924e+06,9.095226e+05,0.000000e+00,0.000000e+00,47.920506, 48.250748,0.000100,0.266375,0.045784, 502.23914,    0.00000, 0.000000e+00, -1.8, 26940,6.383153e+06,5.307019e+06,3.633988e+06,2.515533e+06,2.195820e+05,1.442218e+05,47.879208, 48.137142,0.000100,0.453973,0.158873, 502.23914,    0.00000, 0.000000e+00, -1.8, 26940,1.327185e+07,6.983360e+06,5.327475e+06,3.687810e+06,1.892920e+05,0.000000e+00,47.526897, 47.983536,0.000100,0.344769,0.094257, 502.23914,    0.00000, 0.000000e+00, -1.8, 26940,4.331763e+06,5.302219e+06,2.872851e+06,1.988659e+06,1.617320e+05,0.000000e+00,47.448799, 47.828381,0.000100,0.550366,0.291940, 502.23914,    0.00000, 0.000000e+00, -1.8, 26940,6.831572e+06,4.426385e+06,3.500920e+06,2.423424e+06,0.000000e+00,0.000000e+00,47.454327, 47.924034,0.000100,0.393178,0.144400, 502.23914,    0.00000, 0.000000e+00, -1.8, 26940,6.818470e+05,6.798970e+05,9.139700e+05,6.326727e+05,1.297900e+05,0.000000e+00,47.556152, 47.605877,0.000100,0.499284,0.483908, 502.23914,    0.00000, 0.000000e+00, -1.8, 26940,2.791207e+06,2.670772e+06,1.177807e+06,8.153072e+05,0.000000e+00,0.000000e+00,47.482708, 47.828785,0.000100,0.488975,0.097187, 502.23914,     0.00000, 0.000000e+00, -1.8, 26940, 3.238148e+06,5.218549e+06,4.366462e+06,3.560354e+06,1.921120e+05,1.261793e+05,47.315250, 47.766857,0.000100,0.617091,0.544078,
LLQSNPVLEAFGNAK,Yes, 30, 2,  800.93829,38.965,35.189,17.428,6.173,1.736,0.410,97.559, 801.43945,   42.66000, 1.200000e-04, -626.1, 36659,2.971349e+07,2.022334e+07,9.348398e+06,2.414790e+06,5.828820e+05,0.000000e+00,62.232319, 63.226189,0.000100,0.404978,0.000000, 801.43555,   34.81000, 8.100000e-04, -621.2, 36495,2.702983e+07,2.594574e+07,1.646362e+07,9.739399e+06,3.013044e+06,6.052360e+05,62.351337, 62.629738,0.000100,0.489768,0.173621, 801.43945,    0.00000, 0.000000e+00, -626.1, 36659,2.119461e+07,2.507529e+07,1.354786e+07,2.119284e+06,1.493631e+06,0.000000e+00,62.049507, 62.254719,0.000100,0.541935,0.153321, 801.44190,   31.99000, 1.000000e-03, -629.2, 36132,2.017824e+07,2.204580e+07,1.380116e+07,2.007284e+06,9.736000e+05,3.250580e+05,62.077961, 63.005154,0.000100,0.522115,0.149541, 801.43945,    0.00000, 0.000000e+00, -626.1, 36659,1.987103e+07,1.898897e+07,1.868475e+07,6.189935e+06,1.399655e+06,0.000000e+00,61.719337, 63.235844,0.000100,0.488651,0.270107, 800.93921,   46.56000, 6.100000e-04, -1.1, 35894,1.932685e+07,2.002104e+07,1.852223e+07,7.845578e+06,1.879281e+06,6.739510e+05,62.112972, 62.348614,0.000100,0.508821,0.306959, 801.94019,   19.62000, 1.400000e-02, -1251.7, 35727,7.019348e+06,5.734239e+06,6.608901e+06,3.099309e+06,0.000000e+00,0.000000e+00,62.009346, 62.858391,0.000100,0.449618,0.270462, 800.94208,   39.52000, 5.500000e-04, -4.7, 35794,4.568089e+07,4.792419e+07,4.922023e+07,2.788418e+07,1.177343e+07,5.801032e+06,61.419304, 62.834419,0.000100,0.511983,0.395802, 801.43945,    0.00000, 0.000000e+00, -626.1, 36659,1.265344e+07,1.404087e+07,1.247591e+07,6.951647e+06,3.259330e+06,0.000000e+00,61.880920, 62.847610,0.000100,0.525987,0.355634, 801.43945,    0.00000, 0.000000e+00, -626.1, 36659,2.039949e+07,2.368541e+07,1.918074e+07,1.084800e+07,5.090873e+06,2.019211e+06,61.928329, 63.018631,0.000100,0.537268,0.362719, 801.94794,   17.43000, 2.300000e-02, -1261.4, 36025,1.347513e+07,1.588603e+07,1.561510e+07,1.067027e+07,5.707457e+06,1.569307e+06,61.918144, 62.928604,0.000100,0.541056,0.458676, 801.43945,     0.00000, 0.000000e+00, -626.1, 36659, 2.167902e+07,3.430087e+07,2.861448e+07,2.218497e+07,1.128053e+07,5.395528e+06,61.333439, 62.752869,0.000100,0.612736,0.560767,
NVLDTSWPTPPPALR,Yes, 26, 2,  832.44375,37.125,35.332,18.270,6.720,1.956,0.477,102.241, 832.44635,   76.60000, 2.400000e-07, -3.1, 36943,2.523014e+07,2.044084e+07,7.405914e+06,2.198188e+06,1.508360e+06,4.599746e+05,61.859783, 63.001118,0.000100,0.447567,0.011505, 832.44635,    0.00000, 0.000000e+00, -3.1, 36943,2.503081e+07,2.450238e+07,9.808451e+06,2.771537e+06,8.372040e+05,5.158357e+05,62.579391, 62.958622,0.000100,0.494666,0.008059, 832.94800,   48.89000, 5.900000e-05, -606.1, 36649,3.307504e+07,3.040327e+07,1.455689e+07,5.257857e+06,2.301300e+05,1.563989e+05,61.537914, 62.729492,0.000100,0.478955,-0.000000, 832.44635,    0.00000, 0.000000e+00, -3.1, 36943,1.898818e+07,1.969205e+07,8.671902e+06,4.425883e+06,1.159864e+06,8.006758e+05,62.401337, 62.829540,0.000100,0.509099,0.050443, 832.94733,   45.21000, 1.200000e-04, -605.3, 36363,2.097539e+07,2.057534e+07,1.248348e+07,4.867299e+06,8.207330e+05,5.682572e+05,61.594807, 62.847229,0.000100,0.495186,0.081079, 832.94781,   46.43000, 1.200000e-04, -605.9, 36193,1.760032e+07,1.956124e+07,1.194961e+07,7.611016e+06,1.671981e+06,1.157665e+06,62.456650, 62.811684,0.000100,0.526384,0.217212, 832.44388,   55.12000, 1.200000e-04, -0.2, 36022,2.088181e+07,2.194322e+07,1.363136e+07,7.387054e+06,2.470667e+06,1.710666e+06,62.282215, 62.607601,0.000100,0.512392,0.193544, 832.94751,   29.20000, 1.800000e-03, -605.5, 36034,3.300413e+07,3.159332e+07,2.112021e+07,1.220227e+07,3.806235e+06,3.526358e+06,61.294022, 62.526619,0.000100,0.489080,0.187489, 832.94775,   38.54000, 4.000000e-04, -605.8, 36141,3.169008e+07,3.374467e+07,2.145447e+07,1.239867e+07,2.178145e+06,1.903948e+06,61.281910, 62.494732,0.000100,0.515700,0.190895, 832.94775,   23.03000, 1.100000e-02, -605.8, 36193,3.029864e+07,3.029677e+07,1.909179e+07,1.041115e+07,2.872940e+06,2.203179e+06,61.421608, 62.562023,0.000100,0.499985,0.163467, 832.94818,   24.77000, 7.400000e-03, -606.3, 36318,3.226411e+07,3.333437e+07,2.490800e+07,1.459381e+07,4.412472e+06,2.659091e+06,61.388756, 62.568325,0.000100,0.508158,0.242506, 832.44391,    28.47000, 2.100000e-03, -0.2, 36343, 2.454980e+07,2.391257e+07,1.761939e+07,9.771931e+06,3.009789e+06,2.323973e+06,62.199821, 62.452427,0.000100,0.493426,0.212761,
LLQFYAETcPAPER,Yes, 32, 2,  847.91396,36.382,33.793,18.732,7.669,2.523,0.698,107.846, 847.91614,   51.01000, 1.600000e-05, -2.6, 29737,1.891731e+07,1.549363e+07,9.677803e+06,2.878010e+06,0.000000e+00,0.000000e+00,52.121857, 52.244595,0.000100,0.450253,0.000000, 847.91193,   66.41000, 5.900000e-07,  2.4, 29590,1.916989e+07,1.474460e+07,1.106144e+07,4.340130e+06,0.000000e+00,0.000000e+00,52.139729, 52.435272,0.000100,0.434758,0.041732, 847.91481,   28.35000, 2.200000e-03, -1.0, 29427,2.649619e+07,2.896377e+07,1.947486e+07,1.497146e+07,2.455603e+06,2.121599e+06,51.858456, 52.503189,0.000100,0.522247,0.246500, 848.41400,   32.72000, 8.500000e-04, -590.1, 29154,1.841938e+07,1.907198e+07,1.322621e+07,6.593939e+06,3.176448e+06,4.219270e+05,51.926483, 52.099033,0.000100,0.508703,0.176239, 848.41058,   29.16000, 1.800000e-03, -586.0, 29191,3.022573e+07,2.817532e+07,1.891529e+07,1.063415e+07,5.201226e+06,1.399717e+06,52.041256, 52.408726,0.000100,0.482445,0.131203, 847.91614,    0.00000, 0.000000e+00, -2.6, 29737,2.680211e+07,2.600845e+07,1.970420e+07,1.170464e+07,4.667587e+06,1.432592e+06,51.905655, 52.157257,0.000100,0.492486,0.194313, 848.41223,   31.65000, 1.100000e-03, -588.0, 28806,2.749497e+07,2.701792e+07,2.115960e+07,1.313807e+07,6.459204e+06,1.659061e+06,51.725731, 52.151249,0.000100,0.495624,0.232167, 847.91614,    0.00000, 0.000000e+00, -2.6, 29737,4.254972e+07,4.008737e+07,3.152472e+07,1.822008e+07,9.159445e+06,4.453477e+06,51.656731, 52.099586,0.000100,0.485101,0.215018, 847.91614,    0.00000, 0.000000e+00, -2.6, 29737,3.181216e+07,3.061120e+07,2.539160e+07,1.544250e+07,8.437751e+06,2.118984e+06,51.595737, 52.038609,0.000100,0.490380,0.242807, 848.92133,   17.61000, 2.200000e-02, -1188.8, 28988,2.898535e+07,2.500190e+07,2.099561e+07,1.270915e+07,6.415041e+06,2.044104e+06,51.648418, 52.052753,0.000100,0.463108,0.208979, 847.91614,    0.00000, 0.000000e+00, -2.6, 29737,1.907558e+07,2.373918e+07,2.035760e+07,1.367479e+07,7.810529e+06,3.338514e+06,51.654037, 52.073418,0.000100,0.554463,0.416982, 847.91614,     0.00000, 0.000000e+00, -2.6, 29737, 3.574435e+07,3.727607e+07,2.665403e+07,1.780933e+07,8.746922e+06,3.546202e+06,51.569069, 51.940357,0.000100,0.510488,0.254781,
QLLLTPSAVVIVEDAK,Yes, 28, 2,  848.49819,36.717,35.205,18.463,6.915,2.055,0.512,103.658, 848.49829,   44.99000, 1.100000e-04, -0.1, 40190,1.672371e+07,1.568718e+07,7.346363e+06,2.143127e+06,2.798060e+05,0.000000e+00,67.456345, 67.607605,0.000100,0.484010,-0.000000, 848.49834,   49.42000, 4.100000e-05, -0.2, 39919,1.610939e+07,1.588568e+07,8.232166e+06,3.808502e+06,5.864630e+05,0.000000e+00,67.436638, 67.595390,0.000100,0.496504,0.025238, 848.50005,   43.97000, 1.000000e-04, -2.2, 39862,1.486673e+07,1.450492e+07,8.608399e+06,3.620903e+06,7.809920e+05,0.000000e+00,67.275681, 67.454498,0.000100,0.493841,0.061867, 848.49829,    0.00000, 0.000000e+00, -0.1, 40190,1.258124e+07,1.382047e+07,9.753119e+06,4.338493e+06,1.355793e+06,1.351320e+05,67.208069, 67.385330,0.000100,0.523469,0.202091, 848.49829,    0.00000, 0.000000e+00, -0.1, 40190,8.910882e+06,1.297291e+07,9.521951e+06,5.554498e+06,2.465640e+06,0.000000e+00,67.290543, 67.491913,0.000100,0.592809,0.396393, 849.00177,   34.03000, 1.900000e-02, -593.8, 39359,1.189255e+07,1.350954e+07,1.061114e+07,6.369031e+06,3.038212e+06,4.995810e+05,67.286568, 67.471252,0.000100,0.531828,0.304772, 848.49829,    0.00000, 0.000000e+00, -0.1, 40190,8.202136e+06,1.133540e+07,9.163821e+06,6.591372e+06,3.016839e+06,1.575710e+05,67.086662, 67.265579,0.000100,0.580186,0.435527, 848.49829,    0.00000, 0.000000e+00, -0.1, 40190,8.568243e+06,1.242158e+07,1.340334e+07,8.067886e+06,4.343250e+06,1.163774e+06,66.956024, 67.131783,0.000100,0.591791,0.523066, 848.49829,    0.00000, 0.000000e+00, -0.1, 40190,4.870272e+06,7.679846e+06,9.019192e+06,6.431377e+06,2.803354e+06,1.170490e+06,67.011795, 67.144989,0.000100,0.611934,0.593180, 848.49829,    0.00000, 0.000000e+00, -0.1, 40190,5.486173e+06,9.314309e+06,1.068151e+07,7.547448e+06,3.389736e+06,1.663645e+06,67.010666, 67.213226,0.000100,0.629325,0.619550, 848.49829,    0.00000, 0.000000e+00, -0.1, 40190,5.741395e+06,1.123073e+07,1.143047e+07,7.998744e+06,4.036511e+06,1.415379e+06,67.109215, 67.276123,0.000100,0.661716,0.632431, 848.49829,     0.00000, 0.000000e+00, -0.1, 40190, 6.071820e+06,1.220824e+07,1.324671e+07,9.417747e+06,4.011304e+06,1.795058e+06,66.945541, 67.140137,0.000100,0.667845,0.654117,
DGIIDFTSGSELLITK,Yes, 22, 2,  854.95382,37.052,34.964,18.323,6.913,2.081,0.528,103.309, 854.95703,   58.16000, 5.400000e-06, -3.8, 45007,2.065416e+07,2.109402e+07,1.424733e+07,7.091220e+06,2.978185e+06,1.377480e+05,74.706062, 74.940300,0.000100,0.505268,0.167466, 854.95718,   46.22000, 4.600000e-05, -3.9, 44741,1.868131e+07,1.935491e+07,1.136201e+07,5.681992e+06,2.850573e+06,5.607600e+05,74.749718, 75.010033,0.000100,0.508855,0.146112, 854.95703,    0.00000, 0.000000e+00, -3.8, 45007,1.823616e+07,2.035387e+07,1.198375e+07,5.962509e+06,2.876445e+06,9.716750e+05,74.630394, 74.916252,0.000100,0.527439,0.192328, 854.95803,   40.36000, 2.700000e-04, -4.9, 44421,1.552658e+07,1.642304e+07,1.169338e+07,6.919319e+06,3.737438e+06,1.516095e+06,74.548630, 74.807587,0.000100,0.514029,0.260320, 855.46051,   51.79000, 6.300000e-05, -593.0, 44458,1.110136e+07,1.752466e+07,1.047699e+07,7.197385e+06,3.389160e+06,1.791691e+06,73.963562, 74.922836,0.000100,0.612193,0.420498, 855.45886,   40.00000, 1.800000e-04, -591.1, 44299,1.137467e+07,1.738513e+07,1.191239e+07,8.542008e+06,4.950547e+06,2.732113e+06,74.038116, 74.973541,0.000100,0.604494,0.478597, 854.95703,    0.00000, 0.000000e+00, -3.8, 45007,9.072196e+06,1.428572e+07,1.101318e+07,8.167232e+06,4.238832e+06,2.420032e+06,74.581917, 74.842171,0.000100,0.611601,0.520543, 854.95703,    0.00000, 0.000000e+00, -3.8, 45007,1.294097e+07,1.984835e+07,1.514814e+07,9.886637e+06,6.493158e+06,2.737796e+06,73.815773, 74.547745,0.000100,0.605330,0.492919, 855.45854,   38.35000, 2.900000e-04, -590.7, 44317,5.639277e+06,1.173885e+07,9.301590e+06,7.127707e+06,3.351799e+06,1.728885e+06,73.764008, 74.749062,0.000100,0.675496,0.619560, 855.45917,   51.34000, 1.500000e-05, -591.4, 44354,1.174958e+07,3.647445e+07,1.472307e+07,1.142266e+07,4.607892e+06,1.627144e+06,73.789108, 74.777321,0.000100,0.756354,0.532639, 855.96255,   29.75000, 2.100000e-03, -1180.6, 44516,5.203928e+07,6.346643e+07,2.406652e+07,1.024227e+07,4.203396e+06,8.251040e+05,73.918739, 74.178841,0.000100,0.549466,0.066603, 855.46174,    27.59000, 2.600000e-03, -594.4, 44533, 3.384247e+07,2.545952e+07,1.777941e+07,2.982035e+06,1.548418e+06,9.767355e+05,73.741409, 73.998154,0.000100,0.429320,0.017004,
GEELLSPLNLEQAAYAR,Yes, 43, 2,  937.48632,33.911,34.950,19.737,7.967,2.553,0.687,111.975, 937.48926,   82.41000, 6.000000e-08, -3.1, 39189,4.419835e+07,3.113881e+07,1.625619e+07,3.801798e+06,1.117859e+06,0.000000e+00,65.088409, 66.346825,0.000100,0.413326,0.000000, 937.99085,   71.32000, 3.900000e-07, -538.5, 38939,2.546262e+07,2.179475e+07,1.300232e+07,4.866625e+06,8.804330e+05,0.000000e+00,65.220718, 66.135147,0.000100,0.461193,0.000000, 937.49036,   64.62000, 3.400000e-06, -4.3, 38891,3.740143e+07,3.081702e+07,2.086003e+07,8.808857e+06,1.859789e+06,5.238320e+05,64.993729, 66.228462,0.000100,0.451740,0.020849, 937.98907,   64.76000, 2.200000e-06, -536.6, 38585,2.764443e+07,2.614906e+07,1.634664e+07,6.331884e+06,1.923423e+06,1.646540e+05,64.941963, 66.159225,0.000100,0.486101,0.012586, 937.49005,   81.92000, 5.800000e-08, -4.0, 38678,2.360308e+07,2.187596e+07,1.855548e+07,9.417686e+06,3.818015e+06,9.239700e+05,65.079643, 66.426796,0.000100,0.481012,0.165729, 937.98987,   44.02000, 1.000000e-04, -537.4, 38409,1.571117e+07,1.776571e+07,1.480276e+07,7.133421e+06,3.182859e+06,1.688618e+06,65.088440, 65.842133,0.000100,0.530686,0.258550, 937.48926,    0.00000, 0.000000e+00, -3.1, 39189,2.397972e+07,2.401864e+07,2.126706e+07,1.215375e+07,6.318845e+06,2.562333e+06,64.820503, 66.028786,0.000100,0.500405,0.237428, 938.49286,   28.31000, 2.600000e-03, -1074.2, 38238,1.220971e+07,1.546121e+07,1.819341e+07,1.098485e+07,6.661777e+06,3.098277e+06,64.637794, 65.876534,0.000100,0.558753,0.480005, 937.48926,    0.00000, 0.000000e+00, -3.1, 39189,6.982867e+06,9.249666e+06,9.828777e+06,7.350680e+06,3.786061e+06,2.072416e+06,65.570648, 65.952171,0.000100,0.569823,0.497646, 938.49457,   34.67000, 8.500000e-04, -1076.1, 38396,9.608354e+06,1.212794e+07,1.449606e+07,9.728928e+06,5.825520e+06,3.145614e+06,64.726036, 66.058182,0.000100,0.557958,0.507374, 937.48926,    0.00000, 0.000000e+00, -3.1, 39189,8.992659e+06,1.235189e+07,1.520436e+07,1.038822e+07,6.936310e+06,3.332845e+06,65.675064, 66.166527,0.000100,0.578691,0.555640, 937.48926,     0.00000, 0.000000e+00, -3.1, 39189, 1.078288e+07,1.272461e+07,1.852593e+07,1.194450e+07,9.189698e+06,5.033567e+06,65.455582, 65.709000,0.000100,0.541300,0.563501,
VLQSLGSEPIQYAVPVVK,Yes, 33, 2,  964.04858,31.560,34.934,20.802,8.758,2.906,0.805,118.460, 964.55518,   52.85000, 1.100000e-05, -525.8, 35578,1.664002e+07,1.763266e+07,9.781845e+06,3.555131e+06,3.984980e+05,0.000000e+00,60.640228, 60.791504,0.000100,0.514482,0.000000, 964.05359,   40.14000, 1.700000e-04, -5.2, 35372,1.377113e+07,1.674083e+07,9.323423e+06,3.823765e+06,1.193686e+06,0.000000e+00,60.646458, 60.799026,0.000100,0.548665,0.021111, 964.55518,    0.00000, 0.000000e+00, -525.8, 35578,1.559758e+07,1.845853e+07,1.434299e+07,6.403464e+06,1.913463e+06,0.000000e+00,60.439369, 60.589439,0.000100,0.542004,0.163654, 964.55231,   49.02000, 2.500000e-05, -522.8, 34967,1.148199e+07,1.411210e+07,1.010518e+07,4.808099e+06,2.020517e+06,0.000000e+00,60.446507, 60.571739,0.000100,0.551381,0.161571, 964.05078,   33.17000, 7.700000e-04, -2.3, 35025,8.963433e+06,1.296925e+07,1.063974e+07,5.760790e+06,3.981859e+06,5.732800e+05,60.466068, 60.617390,0.000100,0.591321,0.352699, 964.55164,   38.36000, 2.500000e-04, -522.1, 34822,8.708835e+06,1.402691e+07,1.141031e+07,7.256094e+06,4.111947e+06,6.735730e+05,60.524422, 60.675819,0.000100,0.616954,0.415481, 964.55518,    0.00000, 0.000000e+00, -525.8, 35578,8.411301e+06,1.268434e+07,1.138785e+07,7.891912e+06,4.239279e+06,2.019936e+06,60.314209, 60.471760,0.000100,0.601278,0.444471, 964.55518,    0.00000, 0.000000e+00, -525.8, 35578,6.477451e+06,1.231285e+07,1.339299e+07,8.844404e+06,4.581516e+06,2.305093e+06,60.291782, 60.441811,0.000100,0.655277,0.587611, 964.55518,    0.00000, 0.000000e+00, -525.8, 35578,5.262284e+06,9.456443e+06,9.142716e+06,7.127899e+06,4.415082e+06,1.477837e+06,60.284626, 60.413792,0.000100,0.642477,0.560844, 964.55518,    0.00000, 0.000000e+00, -525.8, 35578,6.193656e+06,9.854280e+06,1.088157e+07,8.218109e+06,4.179273e+06,1.877119e+06,60.326530, 60.436333,0.000100,0.614053,0.535994, 964.55518,    0.00000, 0.000000e+00, -525.8, 35578,4.867965e+06,1.009648e+07,1.176064e+07,1.129458e+07,6.527615e+06,3.376635e+06,60.307880, 60.457870,0.000100,0.674698,0.691143, 964.55518,     0.00000, 0.000000e+00, -525.8, 35578, 4.477296e+06,9.535437e+06,1.035387e+07,1.079479e+07,7.137770e+06,2.672721e+06,60.254894, 60.380405,0.000100,0.680484,0.698334,
LLHYAGEVTYSVTGFLDK,Yes, 24, 3,  671.68244,29.739,34.576,21.594,9.526,3.310,0.959,124.379, 671.68250,   46.85000, 4.600000e-04, -0.1, 39362,1.569592e+07,1.726109e+07,1.274829e+07,3.925905e+06,1.363890e+06,4.930920e+05,66.093933, 66.750854,0.000100,0.523746,0.004481, 672.01868,   16.63000, 2.800000e-02, -501.1, 39978,5.128572e+06,3.098005e+06,1.631688e+06,5.910260e+05,2.217750e+05,1.439240e+05,67.799118, 68.229950,0.000100,0.376585,0.010175, 672.01984,   22.89000, 1.000000e-02, -502.8, 39152,1.077893e+07,1.371684e+07,1.161300e+07,6.030489e+06,3.290939e+06,6.539940e+05,65.998466, 66.538757,0.000100,0.559968,0.229461, 672.01666,   26.70000, 1.400000e-02, -498.1, 38537,1.004623e+07,1.384578e+07,9.077061e+06,5.658206e+06,2.999424e+06,0.000000e+00,65.752754, 66.413826,0.000100,0.579515,0.203636, 672.01941,   49.28000, 5.800000e-04, -502.2, 38862,6.156296e+06,1.056699e+07,8.352520e+06,6.015112e+06,2.463955e+06,1.509246e+06,66.120590, 66.528419,0.000100,0.631873,0.430353, 671.68250,    0.00000, 0.000000e+00, -0.1, 39362,8.004948e+06,9.606262e+06,8.199477e+06,3.699602e+06,2.044854e+06,1.600620e+06,66.296577, 67.058090,0.000100,0.545463,0.251079, 672.01776,   34.80000, 1.200000e-02, -499.7, 38235,6.374506e+06,9.121272e+06,8.464130e+06,6.201944e+06,3.361101e+06,8.592810e+05,65.664772, 66.207733,0.000100,0.588629,0.391123, 672.35461,   23.35000, 1.900000e-02, -1001.7, 38375,4.235769e+06,8.746312e+06,8.771786e+06,5.653358e+06,4.679746e+06,8.761610e+05,65.622574, 66.030914,0.000100,0.673722,0.584600, 672.35529,   27.08000, 1.400000e-02, -1002.7, 38565,3.286795e+06,3.422363e+06,3.097736e+06,1.914151e+06,1.236863e+06,9.537850e+05,66.052025, 66.752922,0.000100,0.510103,0.305365, 671.68250,    0.00000, 0.000000e+00, -0.1, 39362,2.923589e+06,5.923792e+06,5.566159e+06,5.258190e+06,1.295195e+06,1.172870e+06,66.005928, 66.556908,0.000100,0.669553,0.576647, 671.68250,    0.00000, 0.000000e+00, -0.1, 39362,4.666260e+06,3.590123e+06,2.621730e+06,1.308429e+06,7.604700e+05,3.574900e+05,66.217384, 66.830345,0.000100,0.434830,0.070698, 671.68250,     0.00000, 0.000000e+00, -0.1, 39362, 1.138798e+06,1.058277e+06,1.729841e+06,2.961198e+06,1.761433e+06,1.353561e+06,65.378792, 66.534813,0.000100,0.481675,0.708122,
NFHVFYQLLEGGEEETLR,Yes, 35, 3,  727.69188,27.509,33.971,22.517,10.536,3.881,1.193,132.100, 727.69513,   54.65000, 1.100000e-05, -4.5, 45544,4.539567e+06,3.691918e+06,1.968670e+06,7.391640e+05,1.230810e+05,2.228010e+05,75.458763, 75.717545,0.000100,0.448512,0.024074, 727.69513,    0.00000, 0.000000e+00, -4.5, 45544,1.068640e+06,1.260506e+06,1.254689e+06,3.240040e+05,0.000000e+00,0.000000e+00,75.140450, 76.404259,0.000100,0.541188,0.088690, 728.36127,   18.73000, 1.700000e-02, -920.7, 45285,3.027750e+06,2.615617e+06,2.551618e+06,3.576440e+05,2.606313e+05,1.869650e+05,75.378685, 75.558929,0.000100,0.463485,0.029514, 728.02625,   36.14000, 4.100000e-04, -459.9, 44923,3.822640e+06,3.259898e+06,3.556286e+06,1.189957e+06,4.012580e+05,1.352230e+05,74.987083, 75.554253,0.000100,0.460273,0.066270, 727.69513,    0.00000, 0.000000e+00, -4.5, 45544,2.198580e+05,4.199640e+05,4.970020e+05,8.495100e+04,0.000000e+00,0.000000e+00,75.001419, 75.466042,0.000100,0.656376,0.369065, 727.69513,    0.00000, 0.000000e+00, -4.5, 45544,9.120510e+05,1.430619e+06,1.273491e+06,1.060040e+05,7.834606e+04,8.700100e+04,75.416870, 75.649239,0.000100,0.610679,0.140894, 727.69513,    0.00000, 0.000000e+00, -4.5, 45544,1.089190e+06,2.372440e+06,2.060951e+06,1.684403e+06,9.183830e+05,5.895350e+05,74.739594, 74.999588,0.000100,0.685353,0.569988, 727.69513,    0.00000, 0.000000e+00, -4.5, 45544,1.992008e+06,2.535946e+06,3.155680e+06,2.436655e+06,1.048994e+06,1.254174e+06,74.755165, 74.962341,0.000100,0.560064,0.517036, 728.02606,   22.19000, 1.200000e-02, -459.7, 44442,4.342348e+06,5.834855e+06,5.186421e+06,3.529507e+06,2.447664e+06,8.814200e+05,73.893845, 74.877403,0.000100,0.573326,0.312086, 727.69513,    0.00000, 0.000000e+00, -4.5, 45544,7.428770e+05,9.613810e+05,1.428696e+06,1.278973e+06,5.099980e+05,4.000830e+05,74.725784, 74.957886,0.000100,0.564105,0.548694, 727.69513,    0.00000, 0.000000e+00, -4.5, 45544,3.746270e+05,1.026593e+06,1.302368e+06,1.009727e+06,5.804110e+05,9.072150e+05,74.699028, 74.827950,0.000100,0.732642,0.806450, 727.69513,     0.00000, 0.000000e+00, -4.5, 45544, 0.000000e+00,0.000000e+00,0.000000e+00,0.000000e+00,0.000000e+00,0.000000e+00,4528.846680, 4528.846680,0.000000,0.000000,0.000000,
ENLIYTYIGPVLVSVNPYR,Yes, 27, 3,  737.40004,26.180,33.738,23.095,11.084,4.166,1.301,136.349, 737.40625,   55.97000, 8.200000e-06, -8.4, 50614,1.766532e+07,1.566132e+07,8.643469e+06,3.520314e+06,5.773840e+05,7.799300e+04,83.251839, 83.592560,0.000100,0.469934,-0.000000, 737.40625,    0.00000, 0.000000e+00, -8.4, 50614,1.887610e+07,1.426539e+07,7.559939e+06,3.287206e+06,8.238470e+05,3.044760e+05,83.375290, 83.641685,0.000100,0.430439,-0.000000, 737.40566,   29.16000, 1.800000e-03, -7.6, 50280,2.322000e+07,2.107816e+07,1.276235e+07,6.342207e+06,2.458773e+06,2.967550e+05,83.128136, 83.470474,0.000100,0.475825,0.000000, 737.73926,   21.30000, 1.400000e-02, -460.4, 49983,1.845332e+07,1.866202e+07,1.286085e+07,6.432250e+06,2.633780e+06,7.726850e+05,83.130791, 83.524582,0.000100,0.502812,0.003338, 737.40344,   21.98000, 8.700000e-03, -4.6, 49919,1.482349e+07,1.512191e+07,1.232177e+07,6.957031e+06,3.516983e+06,1.647939e+06,83.123154, 83.465927,0.000100,0.504983,0.104635, 737.40625,    0.00000, 0.000000e+00, -8.4, 50614,1.090798e+07,1.185417e+07,9.292343e+06,5.708977e+06,2.586342e+06,9.942630e+05,83.142830, 83.516037,0.000100,0.520784,0.101633, 737.73206,   40.84000, 1.500000e-04, -450.7, 49875,1.023543e+07,1.229222e+07,1.095161e+07,7.741118e+06,4.294352e+06,1.489282e+06,83.144966, 83.471893,0.000100,0.545650,0.221772, 737.40625,    0.00000, 0.000000e+00, -8.4, 50614,9.466915e+06,1.244745e+07,1.109963e+07,8.052238e+06,4.908625e+06,2.015282e+06,83.151596, 83.494675,0.000100,0.568004,0.265904, 737.73572,   32.33000, 1.200000e-03, -455.6, 49998,5.376820e+06,8.204366e+06,8.044824e+06,5.983712e+06,3.581048e+06,1.513042e+06,82.994263, 83.490707,0.000100,0.604098,0.388709, 737.40625,    0.00000, 0.000000e+00, -8.4, 50614,6.192263e+06,9.623782e+06,9.059595e+06,6.426655e+06,3.660154e+06,1.321132e+06,83.099854, 83.401657,0.000100,0.608482,0.363043, 737.74127,   18.96000, 1.700000e-02, -463.2, 49947,6.510747e+06,1.077522e+07,1.034536e+07,7.396352e+06,4.440326e+06,2.088078e+06,83.122810, 83.462257,0.000100,0.623351,0.419983, 737.40625,     0.00000, 0.000000e+00, -8.4, 50614, 7.040624e+06,1.185634e+07,1.258505e+07,9.034307e+06,6.629003e+06,2.465181e+06,83.054298, 83.337074,0.000100,0.627420,0.480672,
GVSFYEVPPHLFAVADTVYR,Yes, 34, 3,  756.38803,24.971,33.366,23.581,11.649,4.497,1.440,140.663, 756.72235,   35.67000, 4.500000e-04, -442.4, 42384,3.185449e+07,4.171342e+07,2.847674e+07,1.429322e+07,4.168494e+06,0.000000e+00,70.255348, 71.307869,0.000100,0.567006,-0.000000, 756.38934,   30.42000, 1.400000e-03, -1.7, 41941,1.409689e+07,1.747516e+07,1.302058e+07,6.844345e+06,3.749460e+06,5.667300e+05,70.468651, 71.475517,0.000100,0.553501,0.045980, 756.38820,   40.43000, 1.600000e-04, -0.2, 41713,3.413782e+07,4.003208e+07,3.082403e+07,1.903325e+07,5.311490e+06,3.982410e+06,69.924995, 70.979927,0.000100,0.539735,0.090727, 756.38940,   56.86000, 4.700000e-06, -1.8, 41584,2.934447e+07,3.544938e+07,3.103450e+07,2.181368e+07,8.774957e+06,3.810750e+06,69.879898, 70.877403,0.000100,0.547110,0.168242, 756.38843,   48.30000, 3.000000e-05, -0.5, 41415,2.314308e+07,2.395196e+07,2.244391e+07,1.966241e+07,1.011070e+07,2.566138e+06,70.084633, 71.153008,0.000100,0.508588,0.253474, 756.72363,   33.95000, 6.500000e-04, -444.1, 41454,2.374795e+07,2.675589e+07,2.834889e+07,2.022079e+07,1.016310e+07,3.193746e+06,70.065788, 71.217415,0.000100,0.529779,0.252115, 756.38580,   59.66000, 2.500000e-06,  3.0, 41236,1.744266e+07,2.112187e+07,2.225095e+07,1.986913e+07,1.083388e+07,5.022727e+06,69.801384, 70.901306,0.000100,0.547702,0.345465, 756.38623,   45.52000, 5.400000e-05,  2.4, 41188,1.631511e+07,1.810234e+07,2.041165e+07,1.535054e+07,1.009392e+07,4.532337e+06,69.749847, 70.729675,0.000100,0.525964,0.334803, 756.38961,    0.00000, 0.000000e+00, -2.1, 42142,1.420536e+07,1.610494e+07,1.734986e+07,1.654767e+07,9.666009e+06,5.664217e+06,69.739212, 70.894531,0.000100,0.531335,0.390637, 756.38961,    0.00000, 0.000000e+00, -2.1, 42142,1.243298e+07,1.614586e+07,1.884177e+07,1.433062e+07,8.803570e+06,3.335803e+06,69.825737, 70.777313,0.000100,0.564958,0.353569, 756.72534,   27.11000, 2.900000e-03, -446.3, 41552,1.411586e+07,1.909942e+07,2.235358e+07,2.241801e+07,1.525608e+07,6.631569e+06,69.846733, 70.944824,0.000100,0.575019,0.460682, 756.38961,     0.00000, 0.000000e+00, -2.1, 42142, 1.261059e+07,1.491665e+07,1.772925e+07,1.697257e+07,1.132989e+07,6.955277e+06,69.591949, 70.181534,0.000100,0.541887,0.462948,
IDYANLTGISVSSLSDSLFVLHVQR,Yes, 42, 3,  912.15186,20.236,30.894,25.045,14.219,6.318,2.331,160.569, 912.82599,   81.31000, 2.400000e-08, -739.6, 48892,1.434728e+07,1.917320e+07,1.476733e+07,9.059589e+06,4.275092e+06,1.101854e+06,80.567574, 81.012459,0.000100,0.571985,0.001579, 912.48785,   19.86000, 1.400000e-02, -368.6, 48759,4.056213e+06,5.828232e+06,4.360275e+06,2.349972e+06,8.433660e+05,0.000000e+00,80.836510, 81.246452,0.000100,0.589637,0.000000, 912.82751,   23.78000, 5.900000e-03, -741.3, 48562,8.304408e+06,1.305340e+07,1.265289e+07,6.582640e+06,4.188203e+06,1.859221e+06,80.427528, 80.980377,0.000100,0.611177,0.175081, 912.15671,   38.86000, 2.300000e-04, -5.3, 48252,8.634796e+06,1.348339e+07,1.212666e+07,8.527267e+06,5.489063e+06,1.676581e+06,80.403511, 80.757607,0.000100,0.609606,0.168625, 912.82599,    0.00000, 0.000000e+00, -739.6, 48892,4.244974e+06,7.062919e+06,8.290068e+06,7.470131e+06,4.776878e+06,2.731864e+06,80.363106, 80.570183,0.000100,0.624601,0.432289, 912.82269,   52.58000, 1.200000e-05, -736.0, 48056,4.164477e+06,7.303240e+06,8.484989e+06,6.921990e+06,3.737811e+06,1.947066e+06,80.431419, 80.818047,0.000100,0.636852,0.402841, 912.82599,    0.00000, 0.000000e+00, -739.6, 48892,4.319119e+06,7.170942e+06,9.255562e+06,9.260885e+06,5.275438e+06,3.152765e+06,80.358612, 80.699944,0.000100,0.624100,0.485148, 912.82599,    0.00000, 0.000000e+00, -739.6, 48892,3.408236e+06,6.816980e+06,7.677898e+06,6.046773e+06,5.892676e+06,3.229274e+06,80.434624, 80.803169,0.000100,0.666683,0.542794, 912.82599,    0.00000, 0.000000e+00, -739.6, 48892,2.299005e+06,4.295206e+06,6.589460e+06,5.714295e+06,5.607090e+06,3.808509e+06,80.319527, 80.562485,0.000100,0.651360,0.659173, 912.82599,    0.00000, 0.000000e+00, -739.6, 48892,1.951499e+06,4.582116e+06,6.228848e+06,5.949021e+06,4.881619e+06,2.806995e+06,80.331070, 80.542007,0.000100,0.701314,0.666312, 912.82599,    0.00000, 0.000000e+00, -739.6, 48892,1.342318e+06,4.706084e+06,5.275884e+06,5.950076e+06,4.789858e+06,2.997444e+06,80.246262, 80.482506,0.000100,0.778071,0.750120, 912.82294,    32.09000, 9.800000e-04, -736.3, 48120, 2.151045e+06,8.414362e+06,9.132494e+06,9.019014e+06,9.088524e+06,4.901487e+06,80.077026, 80.312607,0.000100,0.796407,0.734805,
HLGYKPEEYK,Yes, 17, 3,  421.88378,46.642,34.161,13.922,4.089,0.958,0.189,79.053, 421.88405,    0.00000, 0.000000e+00, -0.6, 11390,5.465403e+07,3.625974e+07,1.492844e+07,2.791123e+06,6.541319e+05,0.000000e+00,25.807158, 26.107725,0.000100,0.398837,-0.000000, 421.88405,    0.00000, 0.000000e+00, -0.6, 11390,2.331648e+07,1.961586e+07,8.210249e+06,3.999666e+06,4.959671e+06,2.522277e+06,25.163811, 26.605398,0.000100,0.456902,0.220735, 421.88405,    0.00000, 0.000000e+00, -0.6, 11390,3.895277e+07,3.243083e+07,1.233082e+07,4.321693e+06,1.136635e+06,4.884072e+05,24.875513, 25.866941,0.000100,0.454318,0.071311, 421.88405,    0.00000, 0.000000e+00, -0.6, 11390,4.670379e+07,4.412292e+07,1.959637e+07,6.018349e+06,6.929180e+05,3.012148e+05,25.542044, 25.849911,0.000100,0.485792,0.156676, 421.88405,   16.03000, 3.100000e-02, -0.6, 11390,3.416551e+07,3.255779e+07,1.874393e+07,8.902084e+06,6.305700e+05,2.747101e+05,25.809158, 26.151167,0.000100,0.487952,0.241471, 421.88418,   21.32000, 1.100000e-02, -1.0, 11250,3.667369e+07,3.469491e+07,2.065765e+07,7.605987e+06,1.564705e+06,7.915670e+05,25.689207, 26.212992,0.000100,0.486137,0.239280, 421.88405,    0.00000, 0.000000e+00, -0.6, 11390,3.173382e+07,3.300772e+07,2.016507e+07,8.711080e+06,7.959090e+05,3.467486e+05,25.322025, 25.624660,0.000100,0.509838,0.294123, 421.88405,    0.00000, 0.000000e+00, -0.6, 11390,3.581559e+07,4.233596e+07,2.366347e+07,1.081091e+07,2.945625e+06,1.021667e+06,25.105234, 25.407637,0.000100,0.541716,0.344758, 422.21864,   19.97000, 1.900000e-02, -795.0, 11208,2.259614e+07,2.995840e+07,1.958579e+07,9.251490e+06,2.097650e+06,1.265398e+06,25.081181, 25.571878,0.000100,0.570044,0.435938, 421.88405,    0.00000, 0.000000e+00, -0.6, 11390,2.178377e+07,2.895425e+07,1.984447e+07,1.104163e+07,1.785361e+06,3.591480e+05,25.094309, 26.492655,0.000100,0.570662,0.452111, 421.88405,    0.00000, 0.000000e+00, -0.6, 11390,2.487712e+07,3.054585e+07,2.287513e+07,1.049515e+07,1.158433e+06,5.046871e+05,25.187042, 25.781143,0.000100,0.551141,0.425413, 421.88405,     0.00000, 0.000000e+00, -0.6, 11390, 1.982961e+07,2.870044e+07,2.145888e+07,1.069955e+07,6.294220e+05,2.742162e+05,25.209982, 25.552879,0.000100,0.591395,0.493926,
KRPETVATQFK,Yes, 20, 3,  435.58222,46.569,34.178,13.955,4.106,0.964,0.190,79.213, 435.58297,    0.00000, 0.000000e+00, -1.7, 10988,2.133136e+07,1.374037e+07,6.088696e+06,5.531490e+05,0.000000e+00,0.000000e+00,24.550076, 24.822020,0.000100,0.391779,0.000000, 435.58297,   22.20000, 1.900000e-02, -1.7, 10988,1.642273e+07,1.283756e+07,7.827099e+06,1.039111e+06,0.000000e+00,0.000000e+00,24.841274, 25.163811,0.000100,0.438737,0.111471, 435.58297,    0.00000, 0.000000e+00, -1.7, 10988,1.857010e+07,1.387382e+07,6.514650e+06,1.525839e+06,0.000000e+00,0.000000e+00,24.374971, 24.615519,0.000100,0.427625,0.033090, 435.58297,    0.00000, 0.000000e+00, -1.7, 10988,2.459259e+07,1.849408e+07,9.772077e+06,2.150553e+06,2.691940e+05,1.293462e+05,24.294855, 24.600010,0.000100,0.429230,0.066570, 435.58316,   18.26000, 2.500000e-02, -2.2, 10575,1.463982e+07,1.426534e+07,6.970823e+06,3.217132e+06,2.176720e+05,1.048547e+05,24.545628, 24.797361,0.000100,0.493522,0.211249, 435.58297,    0.00000, 0.000000e+00, -1.7, 10988,1.319733e+07,1.177243e+07,6.821520e+06,1.940379e+06,5.650290e+05,2.721869e+05,24.472401, 24.687077,0.000100,0.471467,0.193621, 435.58297,    0.00000, 0.000000e+00, -1.7, 10988,1.722717e+07,1.680383e+07,9.926225e+06,3.880029e+06,4.215180e+05,2.030531e+05,24.092194, 24.367306,0.000100,0.493780,0.248840, 435.58297,    0.00000, 0.000000e+00, -1.7, 10988,1.738941e+07,1.835528e+07,1.172777e+07,4.379017e+06,6.290590e+05,3.030295e+05,23.992121, 24.218889,0.000100,0.513511,0.305666, 435.91733,   19.31000, 1.500000e-02, -770.5, 10428,1.283125e+07,1.502938e+07,9.785261e+06,4.221910e+06,8.605490e+05,4.145426e+05,23.935526, 24.216322,0.000100,0.539449,0.368701, 435.91739,   28.99000, 7.400000e-03, -770.7, 10360,8.507106e+06,1.026274e+07,7.118675e+06,3.134854e+06,6.730730e+05,1.250975e+06,23.934788, 24.163319,0.000100,0.546767,0.436522, 435.58297,    0.00000, 0.000000e+00, -1.7, 10988,9.891226e+06,1.044734e+07,1.409836e+07,3.556443e+06,8.611210e+05,1.521960e+06,24.123940, 25.481506,0.000100,0.513671,0.524748, 435.58297,     0.00000, 0.000000e+00, -1.7, 10988, 1.382591e+06,1.662941e+06,1.156277e+06,8.110800e+04,3.502347e+04,1.590070e+05,24.145231, 24.195063,0.000100,0.546026,0.388192,
QLLLTPSAVVIVEDAK,Yes, 28, 3,  566.00122,36.717,35.205,18.463,6.915,2.055,0.512,103.658, 566.00275,    0.00000, 0.000000e+00, -2.7, 39939,6.563609e+06,5.273221e+06,2.151342e+06,1.240399e+06,0.000000e+00,0.000000e+00,67.481346, 67.607605,0.000100,0.445493,-0.000000, 566.00275,   32.14000, 1.200000e-03, -2.7, 39939,5.884920e+06,7.319892e+06,3.530922e+06,8.386650e+05,0.000000e+00,0.000000e+00,67.436638, 67.646057,0.000100,0.554335,0.095701, 566.33704,   36.16000, 4.100000e-04, -594.0, 39909,5.638582e+06,7.009979e+06,4.014799e+06,1.767315e+06,6.993120e+05,6.308500e+04,67.275681, 67.479652,0.000100,0.554212,0.197118, 566.00275,    0.00000, 0.000000e+00, -2.7, 39939,4.441303e+06,5.671323e+06,2.771195e+06,1.486892e+06,1.950480e+05,1.518330e+05,67.233398, 67.410378,0.000100,0.560816,0.170956, 566.33643,   28.15000, 2.300000e-03, -592.9, 39604,4.024511e+06,4.612482e+06,2.749729e+06,2.142595e+06,2.496720e+05,7.565500e+04,67.339668, 67.466980,0.000100,0.534038,0.229371, 566.00248,   31.68000, 1.400000e-03, -2.2, 39406,3.443271e+06,4.069098e+06,2.904341e+06,2.365550e+06,7.339350e+05,0.000000e+00,67.311638, 67.420242,0.000100,0.541653,0.329215, 566.00275,    0.00000, 0.000000e+00, -2.7, 39939,2.268088e+06,3.344114e+06,2.426421e+06,8.901600e+05,4.339790e+05,1.063880e+05,67.112083, 67.240097,0.000100,0.595865,0.358895, 566.00275,    0.00000, 0.000000e+00, -2.7, 39939,2.153953e+06,3.540949e+06,3.370714e+06,2.568949e+06,9.822960e+05,2.333780e+05,66.950455, 67.106316,0.000100,0.621775,0.554720, 566.00275,    0.00000, 0.000000e+00, -2.7, 39939,1.217434e+06,2.511878e+06,2.622790e+06,1.790623e+06,5.352330e+05,5.138620e+05,67.011795, 67.119492,0.000100,0.673550,0.662486, 566.00275,    0.00000, 0.000000e+00, -2.7, 39939,1.286971e+06,2.655943e+06,2.443434e+06,1.721768e+06,9.337580e+05,4.266270e+05,67.037155, 67.187355,0.000100,0.673599,0.638973, 566.00275,    0.00000, 0.000000e+00, -2.7, 39939,8.679270e+05,2.713109e+06,2.834886e+06,1.142734e+06,5.824560e+05,2.083770e+05,67.141876, 67.226044,0.000100,0.757632,0.731484, 566.00275,     0.00000, 0.000000e+00, -2.7, 39939, 4.860470e+05,1.221230e+06,1.462726e+06,1.208823e+06,5.827260e+05,1.852280e+05,66.945541, 67.017303,0.000100,0.715309,0.749482,
GEELLSPLNLEQAAYAR,Yes, 43, 3,  625.32664,33.911,34.950,19.737,7.967,2.553,0.687,111.975, 625.32922,    0.00000, 0.000000e+00, -4.1, 38946,1.167941e+08,5.739765e+07,2.599808e+07,1.123057e+07,1.342655e+06,5.080850e+05,65.992867, 66.625473,0.000100,0.329508,0.000000, 625.32922,   46.03000, 4.800000e-05, -4.1, 38946,7.128118e+07,4.425676e+07,2.337627e+07,1.454281e+07,2.386361e+06,1.761020e+05,65.170959, 66.955254,0.000100,0.383050,-0.000000, 625.32922,    0.00000, 0.000000e+00, -4.1, 38946,1.246360e+08,8.354197e+07,4.483718e+07,2.528306e+07,6.386267e+06,9.712460e+05,65.773758, 66.435936,0.000100,0.401301,0.001651, 625.32515,   56.61000, 1.400000e-05,  2.4, 38612,1.022712e+08,7.186992e+07,4.111983e+07,2.698118e+07,8.995102e+06,1.808857e+06,65.827782, 66.363029,0.000100,0.412711,0.048225, 625.32922,    0.00000, 0.000000e+00, -4.1, 38946,8.864716e+07,8.568330e+07,5.487683e+07,3.719985e+07,1.376475e+07,5.117587e+06,65.969559, 66.528419,0.000100,0.491499,0.131416, 625.32922,    0.00000, 0.000000e+00, -4.1, 38946,1.011758e+08,9.470426e+07,6.351957e+07,4.157972e+07,1.428018e+07,5.120010e+06,65.943558, 66.575470,0.000100,0.483481,0.129383, 625.32922,    0.00000, 0.000000e+00, -4.1, 38946,7.682066e+07,7.366075e+07,4.952646e+07,3.425491e+07,1.140349e+07,3.661211e+06,65.722740, 66.233437,0.000100,0.489501,0.143705, 625.99274,   18.94000, 1.700000e-02, -1066.3, 38273,7.248350e+07,7.292488e+07,5.216802e+07,3.884623e+07,1.422398e+07,4.741623e+06,65.571838, 66.106224,0.000100,0.501518,0.194468, 625.32922,    0.00000, 0.000000e+00, -4.1, 38946,6.550831e+07,7.076167e+07,5.046370e+07,3.780595e+07,1.388297e+07,4.739836e+06,65.595810, 66.154320,0.000100,0.519276,0.222098, 625.32922,    0.00000, 0.000000e+00, -4.1, 38946,6.647040e+07,6.843029e+07,4.993608e+07,3.333754e+07,1.274189e+07,4.140123e+06,65.724205, 66.251205,0.000100,0.507264,0.182165, 625.32922,    0.00000, 0.000000e+00, -4.1, 38946,7.034758e+07,6.938361e+07,5.025720e+07,3.541909e+07,1.416747e+07,5.193441e+06,65.751961, 66.217384,0.000100,0.496551,0.188633, 625.32922,     0.00000, 0.000000e+00, -4.1, 38946, 6.357328e+07,6.751565e+07,5.870366e+07,3.563632e+07,1.699038e+07,6.111797e+06,65.353058, 66.039619,0.000100,0.515037,0.254507,
VNNININQGSITFAGGPGR,Yes, 36, 3,  643.66942,33.369,34.997,19.983,8.127,2.617,0.706,113.346, 643.67123,    0.00000, 0.000000e+00, -2.8, 28942,2.557693e+08,2.634543e+08,4.726933e+08,6.644832e+07,2.323449e+07,8.048783e+06,51.944214, 52.195419,0.000100,0.507400,0.419578, 643.67123,   39.49000, 2.000000e-04, -2.8, 28942,1.587338e+08,1.587875e+08,2.100559e+08,4.486669e+07,1.796982e+07,1.526322e+07,51.324020, 52.115215,0.000100,0.500084,0.298060, 643.67123,    0.00000, 0.000000e+00, -2.8, 28942,2.079063e+08,2.237294e+08,5.143912e+08,7.323070e+07,3.082341e+07,2.968844e+07,51.736855, 51.956070,0.000100,0.518329,0.544332, 643.67123,    0.00000, 0.000000e+00, -2.8, 28942,1.707374e+08,2.020454e+08,4.221390e+08,7.598393e+07,3.335961e+07,3.278311e+07,51.780727, 52.000465,0.000100,0.541992,0.559669, 644.00513,   47.88000, 3.200000e-05, -522.1, 28644,1.615048e+08,2.140098e+08,4.669304e+08,1.061366e+08,5.935135e+07,5.854997e+07,51.871811, 52.090542,0.000100,0.569911,0.644981, 643.67123,    0.00000, 0.000000e+00, -2.8, 28942,1.214435e+08,1.609385e+08,4.613922e+08,8.426107e+07,4.726183e+07,2.078768e+08,51.728188, 51.955070,0.000100,0.569932,0.806542, 643.67123,    0.00000, 0.000000e+00, -2.8, 28942,9.655543e+07,1.374576e+08,5.017369e+08,8.518588e+07,4.607672e+07,2.503963e+08,51.579514, 51.828430,0.000100,0.587393,0.873794, 643.67123,    0.00000, 0.000000e+00, -2.8, 28942,7.899895e+07,1.330975e+08,3.993377e+08,1.003439e+08,6.122172e+07,2.121606e+08,51.532818, 51.779766,0.000100,0.627533,0.870464, 643.67123,    0.00000, 0.000000e+00, -2.8, 28942,4.685598e+07,8.586292e+07,3.178805e+08,7.093226e+07,4.530703e+07,4.469615e+07,51.116455, 51.719193,0.000100,0.646953,0.867087, 643.67123,    0.00000, 0.000000e+00, -2.8, 28942,4.571891e+07,8.369748e+07,3.255922e+08,6.931964e+07,4.119460e+07,4.063918e+07,50.961201, 51.779289,0.000100,0.646730,0.874330, 643.67123,    0.00000, 0.000000e+00, -2.8, 28942,4.238708e+07,8.161775e+07,3.625340e+08,7.054674e+07,4.293580e+07,1.163601e+08,51.020138, 51.751366,0.000100,0.658182,0.928006, 643.67123,     0.00000, 0.000000e+00, -2.8, 28942, 3.855150e+07,8.381816e+07,3.117166e+08,8.366853e+07,5.185122e+07,4.938619e+07,50.987732, 51.716446,0.000100,0.684959,0.898181,
VNNININQGSITFAGGPGR,Yes, 36, 2,  965.00049,33.369,34.997,19.983,8.127,2.617,0.706,113.346, 965.00435,    0.00000, 0.000000e+00, -4.0, 28941,3.892978e+08,3.924772e+08,2.312912e+08,9.638748e+07,3.228687e+07,5.787293e+06,51.968636, 52.195419,0.000100,0.502033,0.007647, 965.00435,   79.87000, 4.000000e-08, -4.0, 28941,2.353065e+08,2.407602e+08,1.534832e+08,7.137268e+07,2.818506e+07,1.058253e+07,51.819275, 52.090233,0.000100,0.505728,0.065765, 965.00435,    0.00000, 0.000000e+00, -4.0, 28941,3.242878e+08,3.533107e+08,2.409845e+08,1.231038e+08,5.429209e+07,1.805355e+07,51.736855, 51.956070,0.000100,0.521416,0.134585, 965.00435,    0.00000, 0.000000e+00, -4.0, 28941,2.854731e+08,3.273469e+08,2.243377e+08,1.238303e+08,6.233340e+07,2.278237e+07,51.780727, 52.000465,0.000100,0.534165,0.192065, 966.00775,   22.05000, 8.500000e-03, -1044.3, 28611,2.490970e+08,3.348811e+08,2.641995e+08,1.723592e+08,9.700423e+07,4.425805e+07,51.846512, 52.090542,0.000100,0.573448,0.370541, 965.50322,   91.31000, 4.800000e-09, -521.2, 28392,2.497419e+08,3.453672e+08,2.888076e+08,1.995688e+08,1.057138e+08,4.542035e+07,51.728188, 51.955070,0.000100,0.580343,0.404747, 965.00435,    0.00000, 0.000000e+00, -4.0, 28941,2.102911e+08,3.134735e+08,2.777662e+08,1.954554e+08,1.104901e+08,5.173701e+07,51.579514, 51.828430,0.000100,0.598501,0.469930, 965.50330,   61.95000, 1.600000e-06, -521.3, 28259,1.918875e+08,3.109048e+08,3.068109e+08,2.311812e+08,1.432245e+08,6.706007e+07,51.532818, 51.779766,0.000100,0.618356,0.554170, 965.00435,    0.00000, 0.000000e+00, -4.0, 28941,1.179472e+08,2.233007e+08,2.366543e+08,1.887208e+08,1.201288e+08,6.127865e+07,51.496647, 51.719193,0.000100,0.654365,0.641324, 965.00435,    0.00000, 0.000000e+00, -4.0, 28941,1.114268e+08,2.095692e+08,2.313030e+08,1.739940e+08,1.051562e+08,4.735434e+07,51.504494, 51.753788,0.000100,0.652872,0.631454, 965.00435,    0.00000, 0.000000e+00, -4.0, 28941,9.985318e+07,1.985729e+08,2.301290e+08,1.939463e+08,1.152240e+08,5.060913e+07,51.530739, 51.751366,0.000100,0.665401,0.672431, 965.00435,     0.00000, 0.000000e+00, -4.0, 28941, 9.927471e+07,2.151029e+08,2.676791e+08,2.279337e+08,1.410600e+08,6.776447e+07,51.469681, 51.716446,0.000100,0.684218,0.718541,
ASFLLNLR,Yes, 14, 2,  467.27944,57.085,30.904,9.465,2.106,0.375,0.056,57.935, 467.28240,    0.00000, 0.000000e+00, -6.4, 32624,3.767253e+07,1.988660e+07,5.997261e+06,1.988200e+05,0.000000e+00,0.000000e+00,56.853214, 57.025532,0.000100,0.345499,-0.000000, 467.28240,    0.00000, 0.000000e+00, -6.4, 32624,2.617283e+07,1.342939e+07,4.323344e+06,1.670740e+05,4.799025e+04,0.000000e+00,56.824856, 57.048752,0.000100,0.339107,0.000000, 467.28240,   31.97000, 1.500000e-02, -6.4, 32624,3.937833e+07,2.495687e+07,8.660717e+06,9.228690e+05,2.005060e+05,0.000000e+00,56.166100, 56.710728,0.000100,0.387919,0.082423, 467.28240,    0.00000, 0.000000e+00, -6.4, 32624,3.261996e+07,2.588291e+07,9.175045e+06,1.938973e+06,2.604790e+05,0.000000e+00,56.505505, 56.711620,0.000100,0.442421,0.192752, 467.28240,    0.00000, 0.000000e+00, -6.4, 32624,3.503191e+07,4.235253e+07,2.252624e+07,7.631901e+06,1.887052e+06,1.099700e+05,56.300053, 56.847668,0.000100,0.547300,0.441315, 467.28032,   37.18000, 1.500000e-02, -1.9, 32201,1.620652e+07,2.317613e+07,1.237616e+07,4.973447e+06,1.054286e+06,1.299210e+05,56.244034, 56.545807,0.000100,0.588486,0.513130, 467.28240,    0.00000, 0.000000e+00, -6.4, 32624,5.085119e+07,7.208298e+07,4.511622e+07,1.711477e+07,3.771533e+06,5.064190e+05,55.991028, 56.266491,0.000100,0.586354,0.531980, 467.28240,    0.00000, 0.000000e+00, -6.4, 32624,2.419414e+07,3.852529e+07,2.648770e+07,1.169454e+07,3.849659e+06,7.508670e+05,55.911903, 56.210064,0.000100,0.614248,0.599511, 467.28240,    0.00000, 0.000000e+00, -6.4, 32624,5.341456e+07,4.181567e+07,2.311360e+07,7.977392e+06,2.121184e+06,4.102670e+05,55.828213, 56.361168,0.000100,0.439101,0.274634, 467.28240,    0.00000, 0.000000e+00, -6.4, 32624,5.000337e+07,4.615891e+07,2.567620e+07,9.218976e+06,2.049613e+06,2.009130e+05,55.892727, 56.219875,0.000100,0.480011,0.345240, 467.28240,    0.00000, 0.000000e+00, -6.4, 32624,4.844431e+07,7.936419e+07,5.436020e+07,2.321111e+07,6.722501e+06,1.034125e+06,55.888100, 56.190464,0.000100,0.620962,0.603364, 467.28240,     0.00000, 0.000000e+00, -6.4, 32624, 3.875474e+07,2.649212e+07,1.606232e+07,6.495484e+06,3.135899e+06,4.374950e+05,55.714714, 55.964371,0.000100,0.406029,0.261769,
KYEAFLQR,Yes, 17, 2,  527.78763,52.922,32.466,11.171,2.781,0.553,0.093,65.826, 527.78919,    0.00000, 0.000000e+00, -3.0, 16382,2.121947e+07,1.103709e+07,4.137763e+06,1.030017e+06,2.049594e+05,0.000000e+00,33.366203, 33.968109,0.000100,0.342166,-0.000000, 527.78919,    0.00000, 0.000000e+00, -3.0, 16382,1.292080e+07,6.796981e+06,4.427409e+06,2.595703e+06,1.399643e+06,4.870690e+05,33.594673, 34.048882,0.000100,0.344713,0.194742, 527.78919,   46.16000, 2.400000e-04, -3.0, 16382,2.958528e+07,1.892929e+07,9.213863e+06,1.077784e+06,3.861567e+05,1.452643e+05,32.982948, 33.636837,0.000100,0.390177,0.075683, 527.78878,   34.04000, 3.400000e-03, -2.2, 16224,3.386057e+07,2.246537e+07,1.133326e+07,1.421446e+06,6.321600e+05,0.000000e+00,33.129520, 33.702538,0.000100,0.398846,0.100952, 527.78919,    0.00000, 0.000000e+00, -3.0, 16382,4.200832e+07,2.916713e+07,1.649339e+07,5.105329e+06,1.292454e+06,6.849950e+05,33.231903, 33.832024,0.000100,0.409792,0.172426, 527.78919,    0.00000, 0.000000e+00, -3.0, 16382,3.844429e+07,2.664077e+07,1.654617e+07,5.757974e+06,1.801191e+06,6.876501e+05,33.152241, 33.715645,0.000100,0.409322,0.198523, 527.78792,   29.85000, 6.700000e-03, -0.6, 15880,2.023071e+07,1.411257e+07,8.782521e+06,2.096258e+06,8.687190e+05,2.638810e+05,32.879028, 33.267681,0.000100,0.410927,0.187939, 527.78934,   30.11000, 6.100000e-03, -3.2, 15849,3.735199e+07,2.988307e+07,1.874253e+07,4.250138e+06,2.133667e+06,5.184570e+05,32.633335, 33.427670,0.000100,0.444457,0.252501, 527.78919,    0.00000, 0.000000e+00, -3.0, 16382,2.564184e+07,2.459085e+07,1.405552e+07,5.959525e+06,1.208359e+06,1.067459e+06,32.625973, 33.241249,0.000100,0.489539,0.340456, 527.78919,    0.00000, 0.000000e+00, -3.0, 16382,1.907120e+07,1.730109e+07,9.946250e+06,3.633748e+06,8.855530e+05,1.125980e+05,32.805634, 33.768356,0.000100,0.475667,0.296580, 527.78919,    0.00000, 0.000000e+00, -3.0, 16382,2.633317e+07,2.104626e+07,1.191910e+07,4.183359e+06,1.112021e+06,4.245376e+05,32.774872, 33.249756,0.000100,0.444207,0.239394, 527.78919,     0.00000, 0.000000e+00, -3.0, 16382, 2.244609e+07,1.986387e+07,1.434950e+07,3.778429e+06,9.223670e+05,2.915620e+05,32.154205, 33.212421,0.000100,0.469484,0.329597,
NPQSYLYLVK,Yes, 14, 2,  612.83478,47.429,34.035,13.557,3.887,0.888,0.171,77.217, 612.83665,    0.00000, 0.000000e+00, -3.1, 29426,5.483559e+07,3.722439e+07,1.498019e+07,2.239824e+06,0.000000e+00,0.000000e+00,52.017345, 52.269058,0.000100,0.404349,0.000000, 612.83665,    0.00000, 0.000000e+00, -3.1, 29426,3.489096e+07,2.163412e+07,1.035363e+07,1.641773e+06,1.262920e+05,2.026862e+06,52.139729, 53.058571,0.000100,0.382735,0.054053, 612.83665,   32.39000, 9.200000e-04, -3.1, 29426,6.023540e+07,4.549548e+07,2.191402e+07,5.192157e+06,1.823170e+05,6.937724e+04,51.761066, 52.674732,0.000100,0.430295,0.063256, 612.83706,   54.22000, 1.000000e-05, -3.7, 29180,4.600537e+07,3.750787e+07,2.016500e+07,5.490462e+06,0.000000e+00,3.183412e+06,51.805294, 52.074223,0.000100,0.449125,0.176683, 612.83665,    0.00000, 0.000000e+00, -3.1, 29426,2.773229e+07,2.106583e+07,1.264986e+07,5.021646e+06,7.051590e+05,2.383843e+06,51.993401, 52.164661,0.000100,0.431693,0.195839, 612.83665,    0.00000, 0.000000e+00, -3.1, 29426,3.783701e+07,2.961068e+07,1.628192e+07,6.924308e+06,9.323850e+05,2.250382e+06,51.776089, 52.741432,0.000100,0.439017,0.173871, 612.83665,    0.00000, 0.000000e+00, -3.1, 29426,4.109067e+07,3.472970e+07,2.443084e+07,1.267381e+07,4.920242e+06,2.332351e+06,51.448536, 51.852795,0.000100,0.458052,0.287369, 612.83665,    0.00000, 0.000000e+00, -3.1, 29426,3.089892e+07,3.135418e+07,2.242903e+07,9.646696e+06,1.405862e+06,2.066665e+06,51.508724, 52.345314,0.000100,0.503657,0.355079, 612.83665,    0.00000, 0.000000e+00, -3.1, 29426,2.678698e+07,2.691060e+07,2.080018e+07,1.148735e+07,4.185476e+06,1.960499e+06,51.447666, 52.290024,0.000100,0.501151,0.394954, 612.83665,    0.00000, 0.000000e+00, -3.1, 29426,2.617612e+07,2.483589e+07,1.754864e+07,8.694160e+06,1.690061e+06,6.507033e+05,51.010445, 51.853642,0.000100,0.486864,0.312901, 612.83665,    0.00000, 0.000000e+00, -3.1, 29426,3.082045e+07,3.107268e+07,2.489613e+07,1.326425e+07,5.192360e+06,1.983007e+06,51.499908, 51.775719,0.000100,0.502038,0.399242, 612.83665,     0.00000, 0.000000e+00, -3.1, 29426, 4.813386e+07,4.636419e+07,3.974661e+07,2.430008e+07,1.222134e+07,5.095710e+06,51.187969, 51.421169,0.000100,0.490636,0.430340,
