MYO1D_MOUSE
Unconventional myosin-Id OS=Mus musculus OX=10090 GN=Myo1d PE=1 SV=1
, , , , , , , , , , , ,Kidney_FASP_2h_K0, , , , , , , , , , , , , , , ,Kidney_FASP_2h_K1, , , , , , , , , , , , , , , ,Kidney_FASP_2h_K2, , , , , , , , , , , , , , , ,Kidney_FASP_2h_K3, , , , , , , , , , , , , , , ,Kidney_FASP_2h_K6, , , , , , , , , , , , , , , ,Kidney_FASP_2h_K7, , , , , , , , , , , , , , , ,Kidney_FASP_2h_K9, , , , , , , , , , , , , , , ,Kidney_FASP_2h_K13, , , , , , , , , , , , , , , ,Kidney_FASP_2h_K16, , , , , , , , , , , , , , , ,Kidney_FASP_2h_K21, , , , , , , , , , , , , , , ,Kidney_FASP_2h_K24, , , , , , , , , , , , , , , ,Kidney_FASP_2h_K31, , , , , , , , , , , , , , , , 
Peptide, UniqueToProtein, Exchangeable Hydrogens, Charge, m/z(Sequence), M0, M1, M2, M3, M4, M5, Total Labeling, m/z(Precursor), IonScore, Expectn, Error(ppm), Scan, I0, I1, I2, I3, I4, I5, Start Elution (min), End Elution (min), I0 Peak Width, Total Labeling, Net Labeling,m/z(Precursor), IonScore, Expectn, Error(ppm), Scan, I0, I1, I2, I3, I4, I5, Start Elution (min), End Elution (min), I0 Peak Width, Total Labeling, Net Labeling,m/z(Precursor), IonScore, Expectn, Error(ppm), Scan, I0, I1, I2, I3, I4, I5, Start Elution (min), End Elution (min), I0 Peak Width, Total Labeling, Net Labeling,m/z(Precursor), IonScore, Expectn, Error(ppm), Scan, I0, I1, I2, I3, I4, I5, Start Elution (min), End Elution (min), I0 Peak Width, Total Labeling, Net Labeling,m/z(Precursor), IonScore, Expectn, Error(ppm), Scan, I0, I1, I2, I3, I4, I5, Start Elution (min), End Elution (min), I0 Peak Width, Total Labeling, Net Labeling,m/z(Precursor), IonScore, Expectn, Error(ppm), Scan, I0, I1, I2, I3, I4, I5, Start Elution (min), End Elution (min), I0 Peak Width, Total Labeling, Net Labeling,m/z(Precursor), IonScore, Expectn, Error(ppm), Scan, I0, I1, I2, I3, I4, I5, Start Elution (min), End Elution (min), I0 Peak Width, Total Labeling, Net Labeling,m/z(Precursor), IonScore, Expectn, Error(ppm), Scan, I0, I1, I2, I3, I4, I5, Start Elution (min), End Elution (min), I0 Peak Width, Total Labeling, Net Labeling,m/z(Precursor), IonScore, Expectn, Error(ppm), Scan, I0, I1, I2, I3, I4, I5, Start Elution (min), End Elution (min), I0 Peak Width, Total Labeling, Net Labeling,m/z(Precursor), IonScore, Expectn, Error(ppm), Scan, I0, I1, I2, I3, I4, I5, Start Elution (min), End Elution (min), I0 Peak Width, Total Labeling, Net Labeling,m/z(Precursor), IonScore, Expectn, Error(ppm), Scan, I0, I1, I2, I3, I4, I5, Start Elution (min), End Elution (min), I0 Peak Width, Total Labeling, Net Labeling,m/z(Precursor), IonScore, Expectn, Error(ppm), Scan, I0, I1, I2, I3, I4, I5, Start Elution (min), End Elution (min), I0 Peak Width, Total Labeling, Net Labeling
LMYNSSNPVLK,Yes, 15, 2,  633.33154,45.794,32.403,14.880,5.106,1.411,0.328,84.764, 633.33337,   33.70000, 6.900000e-04, -2.9, 22574,9.503928e+07,6.318137e+07,2.495876e+07,3.044799e+06,9.209420e+05,0.000000e+00,41.254330, 41.841805,0.000100,0.399324,0.000000, 633.33365,   48.11000, 3.600000e-05, -3.3, 22536,4.981284e+07,3.504786e+07,1.513309e+07,8.225770e+05,3.194995e+05,1.391152e+05,41.282078, 41.912914,0.000100,0.413005,-0.000000, 633.33386,   36.35000, 3.900000e-04, -3.7, 22215,2.071484e+08,1.492348e+08,5.782564e+07,1.385256e+07,4.933790e+05,2.276320e+05,40.962902, 41.164295,0.000100,0.418748,-0.000000, 633.33337,    0.00000, 0.000000e+00, -2.9, 22574,8.734046e+07,6.253916e+07,2.325793e+07,4.620918e+06,3.698790e+05,1.722397e+05,41.091251, 41.318771,0.000100,0.417263,0.000000, 633.33488,   29.12000, 1.900000e-03, -5.3, 22094,6.611391e+07,4.612480e+07,2.041239e+07,4.611380e+06,6.510780e+05,3.037124e+05,41.200432, 41.407631,0.000100,0.410953,-0.000000, 633.33337,    0.00000, 0.000000e+00, -2.9, 22574,5.961636e+07,4.345678e+07,2.060766e+07,3.332459e+06,1.609472e+06,7.507969e+05,41.076534, 41.295364,0.000100,0.421611,0.012862, 633.33240,   24.90000, 4.600000e-03, -1.4, 21659,8.586591e+07,6.279022e+07,2.624231e+07,7.295483e+06,5.085050e+05,2.372096e+05,40.762264, 40.981216,0.000100,0.422386,-0.000000,, , , , , , , , , , , , , , , ,, , , , , , , , , , , , , , , , 633.33426,   25.18000, 4.300000e-03, -4.3, 21876,5.740832e+07,4.063774e+07,2.060722e+07,4.071621e+06,1.672376e+06,3.840716e+06,40.647083, 41.166412,0.000100,0.414476,0.062172, 633.33337,    0.00000, 0.000000e+00, -2.9, 22574,1.706652e+07,1.245240e+07,6.267673e+06,8.417930e+05,3.457578e+05,1.612906e+05,40.855194, 42.701859,0.000100,0.421845,0.018145,, , , , , , , , , , , , , , , ,
VTDGMFLEALNSK,Yes, 20, 2,  712.85813,42.214,32.985,16.359,6.055,1.811,0.457,93.395, 712.85992,  101.23000, 2.900000e-09, -2.5, 35439,1.182646e+07,8.951637e+06,3.142517e+06,2.089910e+05,0.000000e+00,0.000000e+00,60.417511, 60.591438,0.000100,0.430821,0.000000, 712.86150,   59.73000, 1.900000e-05, -4.7, 35232,7.274559e+06,7.253266e+06,3.064627e+06,1.139477e+06,1.864510e+05,9.940808e+04,60.369034, 60.748638,0.000100,0.499267,0.106202, 712.86147,   81.80000, 1.800000e-07, -4.7, 35074,1.009771e+07,1.216793e+07,5.176336e+06,2.410719e+06,2.411270e+05,1.382857e+05,59.941990, 60.816505,0.000100,0.546489,0.219156, 712.86180,   63.98000, 8.000000e-06, -5.1, 34807,6.097057e+06,6.974848e+06,4.934489e+06,2.086520e+05,0.000000e+00,0.000000e+00,60.220943, 60.320583,0.000100,0.533575,0.257049, 712.85992,    0.00000, 0.000000e+00, -2.5, 35439,3.859456e+06,5.709935e+06,4.053657e+06,2.979689e+06,1.354826e+06,9.120530e+05,60.287964, 60.566681,0.000100,0.596687,0.534142, 712.86031,   22.35000, 8.000000e-03, -3.1, 34722,4.298364e+06,4.696846e+06,3.438086e+06,7.999450e+05,1.807460e+05,0.000000e+00,60.324745, 60.400585,0.000100,0.522150,0.273305, 712.85992,    0.00000, 0.000000e+00, -2.5, 35439,1.036208e+06,1.650314e+06,1.368632e+06,4.264470e+05,0.000000e+00,0.000000e+00,60.164726, 60.189930,0.000100,0.614294,0.487683,, , , , , , , , , , , , , , , ,, , , , , , , , , , , , , , , , 712.85992,    0.00000, 0.000000e+00, -2.5, 35439,2.634810e+05,5.754790e+05,3.869310e+05,2.420380e+05,0.000000e+00,0.000000e+00,59.622677, 59.622677,0.000100,0.685943,0.590412, 712.85992,    0.00000, 0.000000e+00, -2.5, 35439,0.000000e+00,0.000000e+00,0.000000e+00,0.000000e+00,0.000000e+00,0.000000e+00,3613.874023, 3613.874023,0.000000,0.000000,0.000000,, , , , , , , , , , , , , , , ,
IGELVGVLVNHFK,Yes, 17, 3,  475.61352,42.048,35.178,15.967,5.152,1.314,0.280,89.226, 475.61356,   25.38000, 1.400000e-02, -0.1, 41140,7.888835e+06,7.320928e+06,2.250450e+06,2.338150e+05,1.791030e+05,0.000000e+00,68.758492, 69.162903,0.000100,0.481331,-0.000000, 475.61356,    0.00000, 0.000000e+00, -0.1, 41140,0.000000e+00,0.000000e+00,0.000000e+00,0.000000e+00,0.000000e+00,0.000000e+00,4153.109375, 4153.109375,0.000000,0.000000,0.000000, 475.94850,   47.48000, 2.500000e-04, -705.3, 40851,9.229728e+06,8.613085e+06,4.363093e+06,7.081790e+05,0.000000e+00,0.000000e+00,68.624931, 69.082741,0.000100,0.482720,0.069988, 475.61500,   34.40000, 8.900000e-04, -3.1, 40319,5.332952e+06,6.707630e+06,3.596726e+06,4.460230e+05,0.000000e+00,0.000000e+00,68.382378, 68.891884,0.000100,0.557085,0.239454, 475.61414,   23.56000, 7.400000e-03, -1.3, 40606,4.638215e+06,5.721619e+06,4.568295e+06,5.283940e+05,0.000000e+00,0.000000e+00,68.780037, 69.196091,0.000100,0.552289,0.334910, 475.61356,    0.00000, 0.000000e+00, -0.1, 41140,5.790837e+06,6.207240e+06,3.982591e+06,1.299800e+06,0.000000e+00,0.000000e+00,68.979294, 69.529633,0.000100,0.517353,0.231752, 475.61356,    0.00000, 0.000000e+00, -0.1, 41140,3.098541e+06,5.430844e+06,3.192697e+06,1.198938e+06,7.873300e+04,0.000000e+00,68.339584, 68.930580,0.000100,0.636722,0.441854,, , , , , , , , , , , , , , , ,, , , , , , , , , , , , , , , , 475.61356,    0.00000, 0.000000e+00, -0.1, 41140,3.496244e+06,6.274456e+06,4.210428e+06,1.246100e+06,3.068750e+05,0.000000e+00,68.649750, 69.054077,0.000100,0.642171,0.477668, 475.61630,   22.07000, 8.500000e-03, -5.8, 40454,5.016346e+06,7.689660e+06,5.967926e+06,1.861789e+06,4.436590e+05,0.000000e+00,68.356773, 69.028938,0.000100,0.605199,0.455245,, , , , , , , , , , , , , , , ,
GIIAILDDAcMNVGK,Yes, 25, 2,  795.40492,38.453,31.991,18.160,7.701,2.667,0.783,105.996, 795.90717,   39.78000, 1.900000e-04, -631.8, 42153,1.085532e+07,8.897028e+06,1.000158e+07,6.885890e+05,2.384295e+05,9.198235e+04,70.332153, 71.229912,0.000100,0.450429,0.152660, 795.40723,   53.11000, 1.000000e-05, -2.9, 42120,7.209296e+06,7.449969e+06,1.082297e+07,6.591355e+06,5.121804e+06,1.204244e+06,70.674316, 71.759682,0.000100,0.508209,0.532419, 795.41028,   19.34000, 1.500000e-02, -6.7, 41793,1.053552e+07,8.368782e+06,7.647581e+06,4.533304e+06,3.077326e+06,2.879280e+06,69.215218, 70.979927,0.000100,0.442692,0.331146, 795.40777,   28.81000, 2.000000e-03, -3.6, 41420,6.411182e+06,6.948473e+06,7.141666e+06,3.078019e+06,4.285896e+06,7.124570e+05,70.057571, 71.003860,0.000100,0.520109,0.456211, 795.90717,    0.00000, 0.000000e+00, -631.8, 42153,3.796282e+06,4.570500e+06,4.064385e+06,2.127771e+06,3.996559e+06,2.344849e+06,70.212410, 71.340446,0.000100,0.546267,0.576152, 795.90717,    0.00000, 0.000000e+00, -631.8, 42153,5.055636e+06,5.937515e+06,1.040383e+07,8.401244e+06,4.823390e+06,3.467856e+06,70.244049, 71.554840,0.000100,0.540110,0.681814, 796.40887,   18.69000, 1.800000e-02, -1263.0, 41118,3.372700e+06,4.516199e+06,4.144151e+06,2.334569e+06,2.173346e+06,9.036640e+05,69.980484, 70.926933,0.000100,0.572475,0.523025,, , , , , , , , , , , , , , , ,, , , , , , , , , , , , , , , , 795.90717,    0.00000, 0.000000e+00, -631.8, 42153,5.025414e+06,6.312990e+06,6.849021e+06,3.754798e+06,2.486764e+06,1.453489e+06,69.953682, 70.828117,0.000100,0.556779,0.518387, 795.90717,    0.00000, 0.000000e+00, -631.8, 42153,2.637579e+06,4.517060e+06,4.082837e+06,2.797692e+06,2.072696e+06,1.920677e+06,70.024773, 70.764870,0.000100,0.631347,0.658352,, , , , , , , , , , , , , , , ,
AWEGNYLASKPDTPQTSGTFVPVANELK,Yes, 51, 3, 1007.50484,17.001,28.736,25.720,16.073,7.841,3.171,175.617,1007.50657,   21.83000, 9.000000e-03, -1.7, 33754,3.346801e+06,4.753951e+06,3.937979e+06,3.042264e+06,1.288380e+06,0.000000e+00,57.934113, 58.033474,0.000100,0.586853,-0.000000,1007.84253,   59.56000, 2.600000e-06, -335.4, 33510,1.681948e+06,3.987113e+06,3.520869e+06,2.017269e+06,9.363140e+05,0.000000e+00,57.873085, 57.973122,0.000100,0.703311,0.042980,1007.50657,    0.00000, 0.000000e+00, -1.7, 33754,1.497272e+06,1.993035e+06,1.496578e+06,2.009271e+06,1.069102e+06,0.000000e+00,57.598579, 57.623550,0.000100,0.571020,0.187638,1007.50657,    0.00000, 0.000000e+00, -1.7, 33754,7.906770e+05,1.426649e+06,1.797245e+06,1.013902e+06,1.017461e+06,8.713420e+05,57.728462, 57.753326,0.000100,0.643410,0.470970,1007.50657,    0.00000, 0.000000e+00, -1.7, 33754,0.000000e+00,0.000000e+00,0.000000e+00,0.000000e+00,0.000000e+00,0.000000e+00,3476.421631, 3476.421631,0.000000,0.000000,0.000000,1007.50657,    0.00000, 0.000000e+00, -1.7, 33754,0.000000e+00,0.000000e+00,0.000000e+00,0.000000e+00,0.000000e+00,0.000000e+00,3476.203857, 3476.203857,0.000000,0.000000,0.000000,1007.50657,    0.00000, 0.000000e+00, -1.7, 33754,1.920020e+05,3.318910e+05,4.670380e+05,3.902410e+05,4.083592e+05,6.001280e+05,57.534424, 57.534424,0.000100,0.633509,0.731740,, , , , , , , , , , , , , , , ,, , , , , , , , , , , , , , , ,1007.50657,    0.00000, 0.000000e+00, -1.7, 33754,0.000000e+00,0.000000e+00,0.000000e+00,0.000000e+00,0.000000e+00,0.000000e+00,3460.231689, 3460.231689,0.000000,0.000000,0.000000,1007.50657,    0.00000, 0.000000e+00, -1.7, 33754,0.000000e+00,0.000000e+00,0.000000e+00,0.000000e+00,0.000000e+00,0.000000e+00,3462.352783, 3462.352783,0.000000,0.000000,0.000000,, , , , , , , , , , , , , , , ,
