MYO6_MOUSE
Unconventional myosin-VI OS=Mus musculus OX=10090 GN=Myo6 PE=1 SV=1
, , , , , , , , , , , ,Kidney_FASP_2h_K0, , , , , , , , , , , , , , , ,Kidney_FASP_2h_K1, , , , , , , , , , , , , , , ,Kidney_FASP_2h_K2, , , , , , , , , , , , , , , ,Kidney_FASP_2h_K3, , , , , , , , , , , , , , , ,Kidney_FASP_2h_K6, , , , , , , , , , , , , , , ,Kidney_FASP_2h_K7, , , , , , , , , , , , , , , ,Kidney_FASP_2h_K9, , , , , , , , , , , , , , , ,Kidney_FASP_2h_K13, , , , , , , , , , , , , , , ,Kidney_FASP_2h_K16, , , , , , , , , , , , , , , ,Kidney_FASP_2h_K21, , , , , , , , , , , , , , , ,Kidney_FASP_2h_K24, , , , , , , , , , , , , , , ,Kidney_FASP_2h_K31, , , , , , , , , , , , , , , , 
Peptide, UniqueToProtein, Exchangeable Hydrogens, Charge, m/z(Sequence), M0, M1, M2, M3, M4, M5, Total Labeling, m/z(Precursor), IonScore, Expectn, Error(ppm), Scan, I0, I1, I2, I3, I4, I5, Start Elution (min), End Elution (min), I0 Peak Width, Total Labeling, Net Labeling,m/z(Precursor), IonScore, Expectn, Error(ppm), Scan, I0, I1, I2, I3, I4, I5, Start Elution (min), End Elution (min), I0 Peak Width, Total Labeling, Net Labeling,m/z(Precursor), IonScore, Expectn, Error(ppm), Scan, I0, I1, I2, I3, I4, I5, Start Elution (min), End Elution (min), I0 Peak Width, Total Labeling, Net Labeling,m/z(Precursor), IonScore, Expectn, Error(ppm), Scan, I0, I1, I2, I3, I4, I5, Start Elution (min), End Elution (min), I0 Peak Width, Total Labeling, Net Labeling,m/z(Precursor), IonScore, Expectn, Error(ppm), Scan, I0, I1, I2, I3, I4, I5, Start Elution (min), End Elution (min), I0 Peak Width, Total Labeling, Net Labeling,m/z(Precursor), IonScore, Expectn, Error(ppm), Scan, I0, I1, I2, I3, I4, I5, Start Elution (min), End Elution (min), I0 Peak Width, Total Labeling, Net Labeling,m/z(Precursor), IonScore, Expectn, Error(ppm), Scan, I0, I1, I2, I3, I4, I5, Start Elution (min), End Elution (min), I0 Peak Width, Total Labeling, Net Labeling,m/z(Precursor), IonScore, Expectn, Error(ppm), Scan, I0, I1, I2, I3, I4, I5, Start Elution (min), End Elution (min), I0 Peak Width, Total Labeling, Net Labeling,m/z(Precursor), IonScore, Expectn, Error(ppm), Scan, I0, I1, I2, I3, I4, I5, Start Elution (min), End Elution (min), I0 Peak Width, Total Labeling, Net Labeling,m/z(Precursor), IonScore, Expectn, Error(ppm), Scan, I0, I1, I2, I3, I4, I5, Start Elution (min), End Elution (min), I0 Peak Width, Total Labeling, Net Labeling,m/z(Precursor), IonScore, Expectn, Error(ppm), Scan, I0, I1, I2, I3, I4, I5, Start Elution (min), End Elution (min), I0 Peak Width, Total Labeling, Net Labeling,m/z(Precursor), IonScore, Expectn, Error(ppm), Scan, I0, I1, I2, I3, I4, I5, Start Elution (min), End Elution (min), I0 Peak Width, Total Labeling, Net Labeling
STGASFIR,Yes, 16, 2,  419.72451,61.920,28.336,7.829,1.605,0.267,0.038,50.068, 419.72476,   43.86000, 1.500000e-03, -0.6, 15059,3.278310e+07,1.325023e+07,4.301065e+06,6.085560e+05,0.000000e+00,0.000000e+00,30.355869, 30.944181,0.000100,0.287840,0.002990, 419.72535,   30.56000, 2.900000e-02, -2.0, 15052,2.079277e+07,1.318079e+07,4.645219e+06,3.665420e+05,1.054150e+05,3.046584e+04,30.410748, 30.971134,0.000100,0.387972,0.152194, 419.72518,   30.30000, 1.800000e-02, -1.6, 14791,2.664574e+07,2.045667e+07,7.196967e+06,2.436492e+06,0.000000e+00,0.000000e+00,30.160475, 31.274105,0.000100,0.434302,0.247390, 419.72486,   28.60000, 2.000000e-02, -0.8, 14579,2.272376e+07,1.737607e+07,6.192592e+06,1.854332e+06,2.844070e+05,8.770430e+05,30.197798, 30.735701,0.000100,0.433320,0.264477, 419.72476,    0.00000, 0.000000e+00, -0.6, 15059,3.575905e+07,3.303761e+07,1.681356e+07,5.734921e+06,1.258916e+06,3.991378e+05,30.292788, 31.982121,0.000100,0.480221,0.380498, 419.72455,   28.56000, 1.700000e-02, -0.1, 14501,2.525895e+07,2.153447e+07,1.034228e+07,2.546256e+06,2.281410e+05,5.631080e+05,30.236767, 30.744471,0.000100,0.460203,0.335996, 419.72426,   28.68000, 2.500000e-02,  0.6, 14269,2.696328e+07,2.692594e+07,1.635388e+07,5.051129e+06,5.928480e+05,1.162930e+06,29.997421, 31.295290,0.000100,0.499654,0.444844, 419.72476,    0.00000, 0.000000e+00, -0.6, 15059,1.804336e+08,1.893073e+08,4.656803e+07,4.343321e+07,2.295160e+06,7.277028e+05,31.493443, 31.765272,0.000100,0.512000,0.393430, 419.72476,    0.00000, 0.000000e+00, -0.6, 15059,1.585068e+08,1.672552e+08,4.851628e+07,4.461949e+07,2.840016e+06,9.004547e+05,31.411430, 31.685188,0.000100,0.513428,0.414432, 419.72476,    0.00000, 0.000000e+00, -0.6, 15059,9.879441e+07,1.069350e+08,3.080046e+07,2.576559e+07,2.144817e+06,2.054200e+06,31.307596, 31.599953,0.000100,0.519785,0.417005, 419.72476,    0.00000, 0.000000e+00, -0.6, 15059,1.128855e+08,1.284645e+08,3.602445e+07,3.456514e+07,1.787959e+06,5.668898e+05,31.411417, 31.694309,0.000100,0.532275,0.441322, 419.72476,     0.00000, 0.000000e+00, -0.6, 15059, 1.555873e+08,1.808418e+08,5.920471e+07,5.497634e+07,3.729093e+06,1.182345e+06,31.540888, 31.797094,0.000100,0.537533,0.466442,
DDEGFIIR,Yes, 15, 2,  482.74035,57.450,30.271,9.547,2.230,0.423,0.068,58.087, 482.73859,   34.63000, 4.600000e-03,  3.7, 27502,3.192022e+07,3.556712e+07,1.158028e+07,2.704374e+06,0.000000e+00,0.000000e+00,48.316647, 49.237831,0.000100,0.527019,0.343210, 482.73939,   30.76000, 9.900000e-03,  2.0, 27375,5.073556e+06,3.412244e+06,1.841828e+06,4.120940e+05,5.493320e+05,1.704048e+05,48.324432, 48.969051,0.000100,0.402112,0.243869, 482.73859,    0.00000, 0.000000e+00,  3.7, 27502,1.668974e+07,1.961045e+07,6.497772e+06,2.871934e+06,1.222355e+06,4.063152e+05,48.083748, 48.707706,0.000100,0.540230,0.392718, 482.73859,    0.00000, 0.000000e+00,  3.7, 27502,8.025870e+06,5.917702e+06,1.425912e+07,6.088171e+06,1.978025e+06,6.648150e+05,48.781498, 49.026886,0.000100,0.424404,0.629042, 482.73859,    0.00000, 0.000000e+00,  3.7, 27502,5.477224e+06,5.967098e+06,5.732333e+06,2.506678e+06,6.384550e+05,2.150241e+05,48.866467, 49.411613,0.000100,0.521402,0.538495, 482.73859,    0.00000, 0.000000e+00,  3.7, 27502,6.478449e+06,5.906968e+06,7.972859e+06,3.411223e+06,1.110376e+06,3.739777e+05,48.727104, 48.957466,0.000100,0.476929,0.557610, 482.73859,    0.00000, 0.000000e+00,  3.7, 27502,4.799451e+06,5.687698e+06,1.172914e+07,5.018371e+06,1.633516e+06,5.501627e+05,48.547375, 49.211105,0.000100,0.542349,0.720905, 482.73859,    0.00000, 0.000000e+00,  3.7, 27502,5.755150e+06,7.186989e+06,1.714108e+07,7.333896e+06,2.387235e+06,8.040130e+05,48.478168, 48.729031,0.000100,0.555317,0.758332, 482.73859,    0.00000, 0.000000e+00,  3.7, 27502,5.035513e+06,7.385640e+06,2.484456e+07,1.062987e+07,3.460098e+06,1.165350e+06,48.409966, 48.657215,0.000100,0.594602,0.837756, 482.73859,    0.00000, 0.000000e+00,  3.7, 27502,4.347100e+06,4.941354e+06,9.975094e+06,4.267894e+06,1.389230e+06,4.678881e+05,48.427017, 48.582359,0.000100,0.531989,0.706926, 482.73859,    0.00000, 0.000000e+00,  3.7, 27502,3.062056e+06,4.212635e+06,2.100707e+07,8.987978e+06,2.925651e+06,9.853497e+05,48.510296, 48.658916,0.000100,0.579081,0.875077, 482.73859,     0.00000, 0.000000e+00,  3.7, 27502, 4.300451e+06,6.534890e+06,2.730963e+07,1.168456e+07,3.803408e+06,1.280975e+06,48.461723, 48.728840,0.000100,0.603109,0.868067,
LSFISVGNK,Yes, 12, 2,  482.77674,56.382,30.999,9.831,2.282,0.427,0.068,59.554, 482.77753,   51.48000, 4.100000e-03, -1.6, 25777,5.114380e+07,3.002248e+07,8.292295e+06,1.429767e+06,0.000000e+00,0.000000e+00,46.388645, 46.583927,0.000100,0.369889,0.018594, 482.77753,    0.00000, 0.000000e+00, -1.6, 25777,3.184981e+07,5.172236e+07,2.244862e+07,2.233554e+06,1.075200e+05,3.001430e+04,46.217007, 46.760933,0.000100,0.618895,0.501885, 482.77753,    0.00000, 0.000000e+00, -1.6, 25777,5.303186e+07,5.172048e+07,1.991648e+07,3.882815e+06,3.719540e+05,1.099787e+05,45.348167, 46.385330,0.000100,0.493741,0.286461, 482.77742,   44.55000, 2.000000e-02, -1.4, 25286,6.013231e+07,5.964056e+07,2.533124e+07,8.753867e+06,3.328610e+05,9.933249e+04,45.539505, 46.478607,0.000100,0.497947,0.314128, 482.77753,    0.00000, 0.000000e+00, -1.6, 25777,6.459923e+07,6.539854e+07,3.504701e+07,1.229558e+07,1.617218e+06,5.861700e+05,45.570286, 46.679096,0.000100,0.503074,0.365722, 482.77749,   50.34000, 5.300000e-03, -1.6, 25058,5.064099e+07,4.860155e+07,2.689924e+07,7.408088e+06,2.183660e+05,6.527755e+04,45.521072, 46.500790,0.000100,0.489725,0.343561, 482.77753,    0.00000, 0.000000e+00, -1.6, 25777,5.107167e+07,4.948216e+07,2.540584e+07,8.527563e+06,1.320283e+06,2.752650e+05,45.638706, 46.196980,0.000100,0.492096,0.338209, 483.28119,   49.51000, 4.800000e-03, -1046.0, 24844,5.610738e+07,6.751167e+07,4.122144e+07,1.181478e+07,1.543228e+06,4.613188e+05,45.087276, 46.126694,0.000100,0.546127,0.453890, 482.77753,    0.00000, 0.000000e+00, -1.6, 25777,5.728143e+07,7.499502e+07,5.295522e+07,1.609775e+07,2.330782e+06,1.229369e+06,45.530903, 46.104576,0.000100,0.566957,0.515309, 482.77753,    0.00000, 0.000000e+00, -1.6, 25777,5.285514e+07,7.417595e+07,5.306125e+07,1.304737e+07,1.465109e+06,7.466910e+05,45.542114, 46.106884,0.000100,0.583920,0.536450, 482.77828,   49.88000, 5.300000e-03, -3.2, 25157,5.491527e+07,5.591422e+07,3.183114e+07,1.024487e+07,1.393296e+06,5.785150e+05,45.644596, 46.249714,0.000100,0.504507,0.378002, 482.77753,     0.00000, 0.000000e+00, -1.6, 25777, 3.431056e+07,3.099333e+07,1.537694e+07,4.357768e+06,4.451980e+05,1.337640e+05,45.749371, 47.179924,0.000100,0.474602,0.297690,
VMLTTAGGTK,Yes, 11, 2,  489.76806,55.259,28.997,11.451,3.329,0.781,0.153,65.775, 489.76952,   45.28000, 3.200000e-04, -3.0, 12959,5.182715e+07,2.400472e+07,8.482382e+06,2.465698e+06,5.782978e+05,0.000000e+00,27.579842, 27.892866,0.000100,0.316552,-0.000000, 489.76952,    0.00000, 0.000000e+00, -3.0, 12959,5.981867e+07,3.318983e+07,1.342345e+07,1.337314e+07,4.194459e+06,1.630461e+06,27.501501, 27.878609,0.000100,0.356847,0.149950, 489.77042,   44.93000, 3.400000e-04, -4.8, 12636,5.044771e+07,3.242872e+07,1.606639e+07,5.934422e+06,1.554484e+06,0.000000e+00,27.492975, 28.371876,0.000100,0.391290,0.146496, 489.76993,   35.73000, 2.900000e-03, -3.8, 12464,3.934460e+07,2.822604e+07,1.192359e+07,3.464955e+06,1.114494e+06,0.000000e+00,27.488310, 27.649843,0.000100,0.417726,0.158407, 490.27175,   48.85000, 1.600000e-04, -1029.5, 12547,3.610218e+07,3.135292e+07,1.575218e+07,5.024372e+06,1.273518e+06,4.459177e+05,27.626299, 27.819908,0.000100,0.464797,0.278821, 489.77064,   43.63000, 3.400000e-04, -5.3, 12464,3.435252e+07,2.734038e+07,1.393160e+07,5.447968e+06,1.671271e+06,1.554070e+05,27.551413, 27.730042,0.000100,0.443169,0.253062, 489.77041,   41.36000, 1.300000e-04, -4.8, 12212,3.908827e+07,3.412816e+07,1.715521e+07,5.995107e+06,2.119030e+06,1.577600e+05,27.242125, 27.423676,0.000100,0.466127,0.285870, 490.27156,   28.95000, 1.100000e-02, -1029.1, 12152,3.829758e+07,3.350152e+07,1.820272e+07,6.979965e+06,1.626295e+06,1.557780e+05,27.074245, 27.303392,0.000100,0.466601,0.302964, 490.27184,   29.14000, 1.100000e-02, -1029.7, 12393,3.020538e+07,2.564886e+07,1.405023e+07,5.267295e+06,1.575130e+06,8.156240e+05,27.020500, 27.203184,0.000100,0.459211,0.299288, 490.27238,   44.54000, 3.900000e-04, -1030.8, 12336,2.809422e+07,2.658036e+07,1.332845e+07,5.321589e+06,9.247570e+05,9.382700e+04,26.927607, 27.159508,0.000100,0.486156,0.321694, 490.27228,   32.31000, 4.900000e-03, -1030.6, 12463,4.195340e+07,3.800756e+07,1.921038e+07,7.917487e+06,1.057173e+06,4.884740e+05,27.113258, 27.330112,0.000100,0.475326,0.306327, 490.27243,    41.70000, 7.200000e-04, -1030.9, 12505, 3.110007e+07,2.990093e+07,1.499778e+07,6.755561e+06,2.494298e+06,7.061940e+05,26.880255, 27.379908,0.000100,0.490171,0.347350,
QFEEIWER,Yes, 20, 2,  568.77218,50.834,32.935,12.130,3.251,0.700,0.127,70.383, 568.77326,   55.26000, 1.900000e-03, -1.9, 28734,6.676140e+07,4.143908e+07,1.657722e+07,6.805470e+05,0.000000e+00,1.990340e+05,50.654846, 50.876015,0.000100,0.382984,0.000516, 568.77326,    0.00000, 0.000000e+00, -1.9, 28734,4.071264e+07,3.088122e+07,1.428829e+07,9.172770e+05,3.429140e+05,1.386190e+05,50.603203, 50.878963,0.000100,0.431339,0.104683, 569.27735,   37.67000, 3.500000e-03, -889.0, 28377,6.305766e+07,5.694562e+07,2.958043e+07,9.461786e+06,2.680066e+06,1.591720e+05,49.448463, 50.379536,0.000100,0.474534,0.238604, 569.27559,   25.90000, 2.500000e-02, -885.9, 28139,4.588625e+07,4.093278e+07,2.531922e+07,1.013038e+07,3.807047e+06,0.000000e+00,49.519096, 50.462288,0.000100,0.471472,0.287765, 568.77326,    0.00000, 0.000000e+00, -1.9, 28734,3.208765e+07,4.281635e+07,3.356762e+07,1.435982e+07,5.688279e+06,5.932570e+05,50.546192, 50.797634,0.000100,0.571616,0.514936, 568.77326,    0.00000, 0.000000e+00, -1.9, 28734,2.708202e+07,3.906299e+07,2.883488e+07,1.162770e+07,4.156504e+06,5.803740e+05,50.437016, 50.675644,0.000100,0.590566,0.524736, 568.77326,    0.00000, 0.000000e+00, -1.9, 28734,2.687690e+07,3.769738e+07,2.935859e+07,1.359026e+07,4.581010e+06,6.245130e+05,50.247513, 50.498722,0.000100,0.583783,0.533593, 568.77326,    0.00000, 0.000000e+00, -1.9, 28734,3.029405e+07,3.988636e+07,3.354252e+07,1.418130e+07,6.031873e+06,1.464352e+06,50.124561, 51.353275,0.000100,0.568340,0.529515, 568.77326,    0.00000, 0.000000e+00, -1.9, 28734,1.608555e+07,2.932362e+07,2.391681e+07,1.039216e+07,4.759013e+06,3.154450e+05,49.367081, 50.360580,0.000100,0.645764,0.631060, 568.77326,    0.00000, 0.000000e+00, -1.9, 28734,1.665815e+07,2.618718e+07,2.080326e+07,8.184869e+06,3.667387e+06,4.354440e+05,50.128670, 50.383240,0.000100,0.611203,0.574130, 568.77326,    0.00000, 0.000000e+00, -1.9, 28734,1.871618e+07,3.063080e+07,2.728721e+07,1.113560e+07,4.920306e+06,2.780200e+05,50.180176, 50.403442,0.000100,0.620723,0.609979, 568.77326,     0.00000, 0.000000e+00, -1.9, 28734, 1.892660e+07,3.123304e+07,2.682140e+07,1.230365e+07,5.703506e+06,1.284130e+05,50.126621, 50.333031,0.000100,0.622673,0.613404,
SSEDLLSALQK,Yes, 23, 2,  595.81678,51.374,32.324,12.064,3.325,0.744,0.142,70.111, 595.81775,   57.54000, 1.000000e-04, -1.6, 30636,7.937569e+07,4.857256e+07,1.442258e+07,2.495130e+06,5.579835e+05,0.000000e+00,52.763264, 53.680847,0.000100,0.379627,0.000000, 595.81814,   45.29000, 2.200000e-03, -2.3, 30435,5.909864e+07,4.124880e+07,1.863617e+07,5.716308e+06,1.556318e+07,6.991239e+06,53.329185, 53.676998,0.000100,0.411060,0.244764, 595.81775,    0.00000, 0.000000e+00, -1.6, 30636,6.524654e+07,5.241866e+07,2.630506e+07,9.689380e+06,4.244307e+06,9.488632e+06,53.188690, 53.409790,0.000100,0.445490,0.276350, 595.81775,    0.00000, 0.000000e+00, -1.6, 30636,5.519236e+07,4.693924e+07,2.983488e+07,1.384721e+07,5.754681e+06,7.990149e+06,53.237579, 53.458736,0.000100,0.459596,0.352732, 596.31968,   24.58000, 1.100000e-02, -844.8, 30102,4.453093e+07,4.573295e+07,3.373957e+07,1.763918e+07,9.306295e+06,5.879194e+06,53.327660, 53.550781,0.000100,0.506658,0.459582, 596.82269,   22.97000, 7.000000e-03, -1689.7, 29892,4.333703e+07,4.792640e+07,3.269048e+07,1.517183e+07,5.568605e+06,7.366899e+06,53.236824, 53.458866,0.000100,0.525144,0.466060, 595.81775,    0.00000, 0.000000e+00, -1.6, 30636,4.653431e+07,5.089715e+07,3.944218e+07,2.103917e+07,1.393385e+07,1.181164e+07,52.995094, 53.265598,0.000100,0.522389,0.527413, 595.81775,    0.00000, 0.000000e+00, -1.6, 30636,4.169492e+07,5.166169e+07,4.316184e+07,2.315406e+07,9.668424e+06,7.684287e+06,52.993114, 53.243046,0.000100,0.553380,0.555015, 595.81775,    0.00000, 0.000000e+00, -1.6, 30636,3.650553e+07,4.394087e+07,3.281573e+07,1.864835e+07,1.104952e+07,8.880659e+06,52.915394, 53.163609,0.000100,0.546213,0.549691, 595.81775,    0.00000, 0.000000e+00, -1.6, 30636,3.943547e+07,4.475593e+07,3.379924e+07,1.788378e+07,1.168430e+07,5.871798e+06,52.928654, 53.177662,0.000100,0.531597,0.508999, 595.81775,    0.00000, 0.000000e+00, -1.6, 30636,4.180434e+07,5.572797e+07,4.428417e+07,2.335470e+07,1.444340e+07,1.105719e+07,52.940262, 53.211254,0.000100,0.571380,0.588825, 595.81775,     0.00000, 0.000000e+00, -1.6, 30636, 3.770372e+07,4.674322e+07,3.859416e+07,2.015688e+07,1.309802e+07,6.582243e+06,52.832554, 53.130966,0.000100,0.553522,0.558263,
IQEEMEKER,Yes, 25, 3,  397.86064,49.902,30.798,13.452,4.375,1.157,0.258,76.743, 397.86058,   40.94000, 3.700000e-03,  0.1, 7190,1.112855e+07,7.267260e+06,3.083585e+06,8.767220e+05,2.317667e+05,0.000000e+00,19.144094, 19.591150,0.000100,0.395050,0.023893, 397.86110,   40.35000, 3.500000e-03, -1.2, 7188,7.696307e+06,7.462918e+06,3.624043e+06,1.499271e+06,6.813008e+05,2.098438e+06,19.166788, 19.655384,0.000100,0.492302,0.384093, 397.86105,   43.39000, 2.600000e-03, -1.0, 6945,6.527452e+06,7.834708e+06,4.737318e+06,9.944590e+05,4.851762e+05,1.623475e+06,18.995667, 19.463350,0.000100,0.545510,0.457168, 397.86082,   37.43000, 1.200000e-03, -0.4, 6817,1.350226e+07,1.080189e+07,6.701085e+06,2.956069e+06,5.692477e+06,2.335682e+06,18.692656, 19.445379,0.000100,0.444446,0.385506, 398.19469,   29.21000, 8.700000e-03, -841.0, 6906,7.203444e+06,7.288454e+06,3.765531e+06,1.198612e+06,5.926293e+05,3.535816e+05,19.203234, 19.635691,0.000100,0.502933,0.304014, 397.86058,    0.00000, 0.000000e+00,  0.1, 7190,8.248487e+06,9.155113e+06,9.351358e+06,4.027106e+06,1.991136e+06,2.557767e+06,19.050402, 19.453501,0.000100,0.526047,0.561446, 398.19467,   24.53000, 2.100000e-02, -841.0, 6617,4.455321e+06,3.020719e+06,1.108796e+06,3.935490e+05,1.945841e+05,1.160975e+05,18.914251, 19.295267,0.000100,0.404053,0.053886, 398.19418,   28.52000, 1.100000e-02, -839.8, 6570,6.766763e+06,7.392119e+06,6.904596e+06,2.879420e+06,4.944482e+06,2.553885e+06,18.659163, 19.141840,0.000100,0.522084,0.591267, 397.86058,    0.00000, 0.000000e+00,  0.1, 7190,6.260797e+06,4.173766e+06,3.140460e+06,1.523205e+06,1.839660e+05,1.097623e+05,18.788816, 19.010826,0.000100,0.399994,0.199695, 397.86058,    0.00000, 0.000000e+00,  0.1, 7190,4.107894e+06,4.000167e+06,3.965157e+06,2.066152e+06,1.021576e+06,6.095179e+05,18.358175, 19.030504,0.000100,0.493357,0.490679, 398.19610,   24.61000, 2.800000e-02, -844.6, 6874,9.919984e+06,6.666747e+06,5.247440e+06,3.097223e+06,1.531373e+06,1.108308e+06,18.667049, 19.121805,0.000100,0.401933,0.298688, 397.86058,     0.00000, 0.000000e+00,  0.1, 7190, 5.381175e+06,5.694570e+06,6.438148e+06,3.003563e+06,2.085535e+06,6.418370e+05,18.736664, 19.140928,0.000100,0.514148,0.547378,
IQEEMEKER,Yes, 25, 2,  596.28732,49.902,30.798,13.452,4.375,1.157,0.258,76.743, 596.28802,   51.34000, 3.100000e-03, -1.2, 7195,4.208547e+06,2.754383e+06,1.224625e+06,0.000000e+00,0.000000e+00,0.000000e+00,19.144094, 19.247055,0.000100,0.395578,0.012917, 596.28802,    0.00000, 0.000000e+00, -1.2, 7195,2.727612e+06,1.806609e+06,9.957950e+05,2.778240e+05,8.830600e+05,6.108570e+05,19.192003, 19.266918,0.000100,0.398439,0.294822, 596.28802,    0.00000, 0.000000e+00, -1.2, 7195,1.078921e+06,1.062610e+06,7.727810e+05,1.488090e+05,7.260086e+04,4.271200e+05,18.995667, 19.072599,0.000100,0.496192,0.467151, 596.28802,    0.00000, 0.000000e+00, -1.2, 7195,1.668001e+06,1.849092e+06,1.396005e+06,4.284870e+05,1.101551e+06,7.625430e+05,19.024366, 19.079475,0.000100,0.525744,0.570944, 596.28802,    0.00000, 0.000000e+00, -1.2, 7195,1.482222e+06,2.311433e+06,1.885860e+06,1.123785e+06,5.556326e+05,3.315082e+05,19.092819, 19.176165,0.000100,0.609289,0.624073, 596.79004,   34.98000, 7.400000e-03, -843.8, 6818,1.340261e+06,1.623622e+06,9.682950e+05,7.268560e+05,9.850750e+05,6.052400e+05,19.056013, 19.298216,0.000100,0.547802,0.594876, 596.28802,    0.00000, 0.000000e+00, -1.2, 7195,1.807887e+06,1.481713e+06,1.050784e+06,6.065570e+05,6.661450e+05,2.569350e+05,18.838694, 19.916698,0.000100,0.450423,0.403739, 596.28802,    0.00000, 0.000000e+00, -1.2, 7195,1.233992e+06,1.161084e+06,9.200910e+05,2.314560e+05,6.184350e+05,2.382010e+05,18.696842, 18.909920,0.000100,0.484780,0.472092, 596.28802,    0.00000, 0.000000e+00, -1.2, 7195,8.071610e+05,1.194292e+06,6.566660e+05,3.545880e+05,1.293700e+05,2.360740e+05,18.602669, 18.788816,0.000100,0.596712,0.549390, 596.28802,    0.00000, 0.000000e+00, -1.2, 7195,3.468179e+06,2.006969e+06,8.139770e+05,2.595610e+05,1.283358e+05,7.657088e+04,18.619852, 19.692678,0.000100,0.366560,0.022551, 596.79064,   27.71000, 2.000000e-02, -844.8, 6876,1.465725e+07,6.080338e+06,2.845002e+06,2.233381e+06,1.125644e+06,2.171960e+05,18.718416, 19.039345,0.000100,0.293204,0.079173, 596.28802,     0.00000, 0.000000e+00, -1.2, 7195, 1.039452e+07,5.920161e+06,1.339822e+06,1.122121e+06,7.158320e+05,3.295900e+05,18.948442, 19.884775,0.000100,0.362873,0.056126,
NLEISIDALMAK,Yes, 23, 2,  659.35775,45.016,32.447,15.230,5.343,1.514,0.361,86.800, 659.35863,   48.37000, 6.700000e-04, -1.3, 40014,3.444406e+07,2.610414e+07,1.044908e+07,4.648779e+06,1.548269e+06,0.000000e+00,66.346825, 67.305565,0.000100,0.431130,0.015122, 659.35863,    0.00000, 0.000000e+00, -1.3, 40014,1.922665e+07,1.737883e+07,9.383853e+06,5.186109e+06,4.576126e+06,3.843927e+06,66.879379, 67.334763,0.000100,0.474760,0.319238, 659.86163,   50.91000, 4.000000e-04, -764.8, 39711,2.961248e+07,2.371660e+07,1.611498e+07,9.949485e+06,7.454160e+05,4.393470e+05,66.176224, 67.352425,0.000100,0.444722,0.201924, 659.86102,   48.74000, 1.200000e-03, -763.9, 39387,2.588305e+07,2.024640e+07,1.130261e+07,7.448903e+06,2.623526e+06,9.745350e+05,66.211945, 67.077667,0.000100,0.438904,0.171759, 659.85983,   46.82000, 6.500000e-05, -762.1, 39410,4.187722e+07,3.439897e+07,1.826712e+07,1.109358e+07,2.683538e+06,8.639970e+05,66.271973, 67.191391,0.000100,0.450979,0.161256, 659.86060,   38.29000, 2.600000e-03, -763.2, 39215,5.866933e+07,4.604685e+07,1.892503e+07,1.063609e+07,2.959554e+06,1.701706e+06,66.245941, 67.058090,0.000100,0.439730,0.071723, 659.86129,   46.79000, 1.400000e-04, -764.3, 39037,5.454464e+07,4.047692e+07,1.208502e+07,9.467310e+06,1.437823e+06,8.656894e+05,66.053947, 66.880463,0.000100,0.425976,0.032587, 659.86063,   37.33000, 2.500000e-03, -763.3, 39034,7.691189e+07,5.658364e+07,1.017530e+07,6.581837e+06,3.967208e+06,2.388590e+06,65.902290, 66.362877,0.000100,0.423862,0.028975, 659.86224,   34.19000, 4.800000e-03, -765.7, 39144,6.149945e+07,4.723167e+07,1.612306e+07,1.087678e+07,4.201210e+05,2.529479e+05,65.927147, 66.230675,0.000100,0.434390,0.021737, 659.35863,    0.00000, 0.000000e+00, -1.3, 40014,0.000000e+00,0.000000e+00,0.000000e+00,0.000000e+00,0.000000e+00,0.000000e+00,4038.953125, 4038.953125,0.000000,0.000000,0.000000, 659.35863,    0.00000, 0.000000e+00, -1.3, 40014,0.000000e+00,0.000000e+00,0.000000e+00,0.000000e+00,0.000000e+00,0.000000e+00,4042.748535, 4042.748535,0.000000,0.000000,0.000000, 659.35863,     0.00000, 0.000000e+00, -1.3, 40014, 5.174679e+06,3.311545e+06,1.914200e+06,1.238190e+06,6.157645e+05,1.546512e+06,66.192261, 66.508118,0.000100,0.390226,0.290230,
ASFHELYNMYK,Yes, 18, 3,  468.22017,41.184,33.453,16.718,6.209,1.853,0.464,95.248, 468.22097,   15.32000, 3.700000e-02, -1.7, 26645,4.210629e+07,3.664727e+07,1.853890e+07,5.197770e+06,5.281240e+05,4.074980e+05,47.657532, 47.998650,0.000100,0.465341,0.030521, 468.22097,    0.00000, 0.000000e+00, -1.7, 26645,2.305968e+07,1.942730e+07,9.872745e+06,4.367869e+06,3.642930e+05,2.114420e+05,48.473553, 48.894108,0.000100,0.457253,0.032077, 468.55566,   25.89000, 1.100000e-02, -717.6, 26213,3.197531e+07,3.436831e+07,1.944943e+07,7.366752e+06,1.574907e+06,1.962440e+05,47.270531, 47.668365,0.000100,0.518035,0.195414, 468.55521,   24.13000, 1.800000e-02, -716.6, 26072,2.709929e+07,3.240238e+07,2.203949e+07,7.454016e+06,3.717313e+06,0.000000e+00,47.439770, 47.738914,0.000100,0.544563,0.302622, 468.22097,    0.00000, 0.000000e+00, -1.7, 26645,2.096487e+07,3.227110e+07,2.020749e+07,1.047241e+07,2.968772e+06,1.029161e+06,47.745701, 48.120365,0.000100,0.606190,0.425075, 468.22097,    0.00000, 0.000000e+00, -1.7, 26645,2.246690e+07,3.255500e+07,2.480796e+07,9.481635e+06,6.323749e+06,2.209142e+06,47.624512, 48.032024,0.000100,0.591673,0.456787, 468.55481,   20.60000, 2.600000e-02, -715.7, 25796,1.668982e+07,3.134353e+07,2.268858e+07,8.525299e+06,4.553825e+06,4.546880e+05,47.170273, 47.496258,0.000100,0.652537,0.527738, 468.55506,   37.50000, 9.200000e-04, -716.3, 25788,1.536304e+07,3.134367e+07,2.847101e+07,1.309397e+07,4.076502e+06,9.267040e+05,47.130337, 47.448799,0.000100,0.671074,0.614276, 468.22097,    0.00000, 0.000000e+00, -1.7, 26645,1.459551e+07,2.648043e+07,2.319496e+07,1.139564e+07,5.723709e+06,1.138736e+06,47.055946, 47.357300,0.000100,0.644670,0.577366, 468.22097,    0.00000, 0.000000e+00, -1.7, 26645,1.621136e+07,2.829763e+07,2.174284e+07,1.096075e+07,6.082702e+06,1.444633e+06,47.302101, 47.728378,0.000100,0.635773,0.543336, 468.55621,   35.79000, 1.000000e-03, -718.7, 26080,1.754859e+07,3.389455e+07,2.365721e+07,1.119544e+07,4.879633e+06,1.250200e+06,47.175938, 47.427826,0.000100,0.658874,0.543045, 468.22097,     0.00000, 0.000000e+00, -1.7, 26645, 1.427850e+07,3.031345e+07,2.490120e+07,1.327638e+07,5.923755e+06,1.577819e+06,46.885567, 47.107613,0.000100,0.679797,0.619771,
ILKEEQELYQK,Yes, 23, 3,  474.26091,43.409,34.578,15.421,4.971,1.281,0.279,86.850, 474.26213,   33.12000, 7.300000e-03, -2.6, 16610,4.581415e+07,3.679371e+07,1.556141e+07,5.016233e+06,4.937900e+05,0.000000e+00,33.026451, 33.306084,0.000100,0.445402,0.000000, 474.26213,    0.00000, 0.000000e+00, -2.6, 16610,7.260389e+06,5.335739e+06,3.644508e+06,6.969156e+06,7.026200e+05,1.162410e+05,33.409580, 33.507278,0.000100,0.423602,0.389691, 474.59696,   22.96000, 2.000000e-02, -709.6, 16206,5.882782e+07,4.171215e+07,2.796603e+07,1.493473e+07,4.107254e+06,1.372970e+05,32.662689, 33.061634,0.000100,0.414881,0.137423, 474.26182,   34.93000, 2.100000e-03, -1.9, 16100,3.310315e+07,3.104181e+07,2.629887e+07,1.557179e+07,6.533565e+06,1.656775e+06,32.813641, 33.188206,0.000100,0.483932,0.338026, 474.26213,    0.00000, 0.000000e+00, -2.6, 16610,1.852165e+07,2.770829e+07,2.631258e+07,2.187479e+07,6.803847e+06,2.351545e+06,33.067562, 33.288059,0.000100,0.599358,0.599450, 474.26213,    0.00000, 0.000000e+00, -2.6, 16610,2.394031e+07,3.263161e+07,2.762735e+07,2.251324e+07,7.703456e+06,1.518348e+06,32.996017, 33.249939,0.000100,0.576816,0.538633, 474.26213,    0.00000, 0.000000e+00, -2.6, 16610,1.714240e+07,2.170492e+07,2.260162e+07,1.432672e+07,6.029528e+06,2.387975e+06,32.502594, 32.879028,0.000100,0.558724,0.537671, 474.26213,    0.00000, 0.000000e+00, -2.6, 16610,1.702761e+07,2.578272e+07,2.716151e+07,1.813843e+07,7.934770e+06,2.873301e+06,32.518593, 32.814293,0.000100,0.602255,0.608222, 474.26213,    0.00000, 0.000000e+00, -2.6, 16610,2.996286e+07,1.985411e+07,2.076959e+07,2.544606e+07,7.329823e+06,2.276170e+06,32.220554, 32.711681,0.000100,0.398541,0.424235, 474.26213,    0.00000, 0.000000e+00, -2.6, 16610,4.420305e+07,1.630631e+07,1.471643e+07,9.469797e+06,4.319918e+06,5.164100e+05,32.687775, 32.780678,0.000100,0.269484,0.137057, 474.26213,    0.00000, 0.000000e+00, -2.6, 16610,2.579326e+07,2.441095e+07,2.467840e+07,2.152909e+07,7.629553e+06,2.374186e+06,32.253937, 32.872173,0.000100,0.486233,0.456568, 474.26213,     0.00000, 0.000000e+00, -2.6, 16610, 1.478113e+07,3.441403e+06,5.403964e+06,1.152434e+07,1.962276e+06,1.359236e+06,32.280022, 32.551155,0.000100,0.188854,0.424805,
ILKEEQELYQK,Yes, 23, 2,  710.88772,43.409,34.578,15.421,4.971,1.281,0.279,86.850, 710.88982,   49.50000, 4.000000e-05, -2.9, 16626,1.151415e+07,8.866868e+06,4.852124e+06,2.825650e+05,0.000000e+00,0.000000e+00,33.081139, 33.281807,0.000100,0.435055,0.000000, 710.88982,    0.00000, 0.000000e+00, -2.9, 16626,1.182426e+07,1.159640e+07,5.469944e+06,3.765750e+05,1.683122e+05,2.974404e+06,33.507278, 33.667747,0.000100,0.495136,0.261356, 710.88982,    0.00000, 0.000000e+00, -2.9, 16626,9.867294e+06,9.897082e+06,6.864895e+06,2.930203e+06,1.680200e+05,0.000000e+00,32.687778, 32.886093,0.000100,0.500754,0.262383, 710.88982,    0.00000, 0.000000e+00, -2.9, 16626,6.916182e+06,9.528928e+06,6.835085e+06,2.799579e+06,5.934400e+05,0.000000e+00,32.868893, 33.083843,0.000100,0.579438,0.419151, 710.88982,    0.00000, 0.000000e+00, -2.9, 16626,5.539423e+06,7.729831e+06,6.771173e+06,2.965119e+06,1.065822e+06,0.000000e+00,33.087933, 33.250542,0.000100,0.582537,0.485654, 710.88982,    0.00000, 0.000000e+00, -2.9, 16626,4.343703e+06,7.998378e+06,7.440166e+06,3.707669e+06,1.478486e+06,3.049810e+05,32.996017, 33.201958,0.000100,0.648057,0.608243, 710.88982,    0.00000, 0.000000e+00, -2.9, 16626,4.026980e+06,6.085879e+06,6.309838e+06,4.527231e+06,1.849083e+06,0.000000e+00,32.581017, 32.725330,0.000100,0.601796,0.605666, 710.88982,    0.00000, 0.000000e+00, -2.9, 16626,4.163067e+06,8.916514e+06,9.099113e+06,5.240759e+06,2.749316e+06,0.000000e+00,32.580170, 32.740555,0.000100,0.681713,0.687894, 710.88982,    0.00000, 0.000000e+00, -2.9, 16626,2.164190e+06,5.202888e+06,4.982175e+06,2.980824e+06,1.670176e+06,1.357680e+05,32.625973, 32.766632,0.000100,0.706235,0.714625, 711.39266,   21.83000, 9.700000e-03, -710.8, 16124,3.532980e+06,7.459756e+06,6.868723e+06,4.448533e+06,1.271730e+06,1.465860e+05,32.612782, 32.849014,0.000100,0.678608,0.665239, 711.39265,   31.13000, 1.400000e-03, -710.8, 16157,3.597306e+06,6.880560e+06,8.049134e+06,5.415086e+06,2.353976e+06,1.386130e+05,32.625614, 32.774872,0.000100,0.656676,0.694275, 711.39234,    20.83000, 1.500000e-02, -710.3, 16117, 3.948553e+06,7.891063e+06,8.894865e+06,5.892546e+06,2.696275e+06,1.553610e+05,32.231552, 32.696751,0.000100,0.666497,0.698741,
PTYATAMLQNLLK,Yes, 20, 2,  732.39995,40.363,33.521,17.067,6.454,1.962,0.501,97.372, 732.40454,   58.94000, 3.000000e-06, -6.3, 42463,3.309150e+07,2.643226e+07,1.580125e+07,4.123069e+06,4.785610e+05,0.000000e+00,70.846741, 71.101860,0.000100,0.444062,0.007098, 732.90332,   44.74000, 6.400000e-05, -687.8, 42376,1.240440e+07,1.279718e+07,6.870707e+06,3.670486e+06,1.037883e+06,0.000000e+00,71.115730, 71.321434,0.000100,0.507793,0.175497, 732.90540,   41.05000, 1.400000e-04, -690.6, 42135,2.384161e+07,2.576651e+07,2.311503e+07,7.953903e+06,2.724734e+06,2.245990e+05,70.700294, 70.928894,0.000100,0.519401,0.326013, 732.40454,    0.00000, 0.000000e+00, -6.3, 42463,1.729869e+07,2.055200e+07,2.165614e+07,7.782640e+06,4.090823e+06,4.149490e+05,70.570023, 70.825775,0.000100,0.542976,0.429932, 732.40454,    0.00000, 0.000000e+00, -6.3, 42463,1.030568e+07,1.698532e+07,1.645128e+07,7.015825e+06,4.297069e+06,1.400980e+05,70.743645, 70.922386,0.000100,0.622378,0.550024, 732.40454,    0.00000, 0.000000e+00, -6.3, 42463,1.032340e+07,1.494464e+07,1.163136e+07,6.322902e+06,2.891427e+06,5.419560e+05,70.269241, 71.012444,0.000100,0.591445,0.457866, 732.90330,   56.52000, 5.000000e-06, -687.7, 41464,1.089750e+07,1.852075e+07,2.075313e+07,8.648660e+06,7.283930e+06,8.668720e+05,70.510674, 70.714317,0.000100,0.629567,0.615204, 732.40454,    0.00000, 0.000000e+00, -6.3, 42463,9.493503e+06,1.530386e+07,2.226078e+07,8.270289e+06,4.062971e+06,7.466920e+05,69.930771, 70.653458,0.000100,0.617157,0.637314, 732.40454,    0.00000, 0.000000e+00, -6.3, 42463,7.415077e+06,1.131789e+07,1.340947e+07,7.078256e+06,3.477357e+06,8.441590e+05,69.991737, 70.636894,0.000100,0.604170,0.588881, 732.90522,   51.64000, 1.600000e-05, -690.4, 41609,1.108478e+07,1.601087e+07,2.262870e+07,9.025392e+06,4.433933e+06,1.018008e+06,69.521057, 70.701035,0.000100,0.590902,0.598292, 732.40454,    0.00000, 0.000000e+00, -6.3, 42463,5.327492e+06,9.605290e+06,1.354360e+07,4.962178e+06,2.437785e+06,1.167260e+05,70.482689, 70.713493,0.000100,0.643235,0.662805, 732.40454,     0.00000, 0.000000e+00, -6.3, 42463, 1.019387e+07,1.914435e+07,3.652896e+07,1.013296e+07,4.978050e+06,6.086580e+05,70.156082, 70.417343,0.000100,0.652540,0.729679,
LVGILDILDEENR,Yes, 23, 2,  749.90920,42.373,34.610,15.911,5.300,1.414,0.319,89.582, 749.91011,   67.74000, 5.400000e-07, -1.2, 45994,1.610134e+07,1.344239e+07,5.762885e+06,2.019378e+06,3.577920e+05,9.880300e+04,76.155029, 76.389442,0.000100,0.455000,0.000000, 749.91087,   31.96000, 1.000000e-03, -2.2, 45844,1.461480e+07,1.305526e+07,7.659143e+06,2.666009e+06,9.455150e+05,0.000000e+00,76.378326, 76.920517,0.000100,0.471819,0.126066, 750.41107,   53.37000, 2.400000e-05, -669.7, 45702,1.309653e+07,1.462283e+07,9.875834e+06,4.364448e+06,1.772771e+06,2.329590e+05,75.095680, 77.086128,0.000100,0.527531,0.301391, 750.41168,   51.72000, 1.100000e-04, -670.5, 45358,1.063755e+07,1.341528e+07,9.120069e+06,4.999204e+06,2.026570e+06,8.878100e+04,75.940399, 76.794098,0.000100,0.557742,0.386285, 750.91510,   28.87000, 2.200000e-02, -1342.3, 45375,7.776907e+06,1.188223e+07,9.749545e+06,6.280716e+06,2.489800e+06,5.268160e+05,75.179939, 77.057854,0.000100,0.604413,0.534022, 750.41327,   46.12000, 3.100000e-04, -672.6, 45205,8.012610e+06,1.337353e+07,1.112716e+07,7.835369e+06,2.839073e+06,7.548690e+05,75.233345, 76.838531,0.000100,0.625336,0.578735, 750.91534,   28.84000, 1.100000e-02, -1342.6, 45043,9.349493e+06,1.443968e+07,1.243293e+07,6.877458e+06,3.037048e+06,8.894430e+05,75.050385, 76.966393,0.000100,0.606985,0.535047, 750.91596,   36.64000, 3.700000e-04, -1343.4, 45103,1.360701e+07,2.080401e+07,2.052478e+07,1.351364e+07,5.483569e+06,1.705443e+06,74.988037, 76.937485,0.000100,0.604574,0.581120, 750.91650,   31.42000, 1.100000e-03, -1344.1, 45187,8.189151e+06,9.167003e+06,6.747402e+06,3.136208e+06,7.057940e+05,1.650600e+05,76.195732, 76.942451,0.000100,0.528170,0.327514, 750.91636,   20.30000, 1.700000e-02, -1344.0, 45205,9.718238e+06,1.474098e+07,1.346969e+07,7.047040e+06,2.925000e+06,6.846380e+05,75.977501, 76.921494,0.000100,0.602676,0.531918, 749.91011,    0.00000, 0.000000e+00, -1.2, 45994,3.761771e+07,3.419879e+07,2.271078e+07,1.129115e+07,3.634875e+06,1.883116e+06,76.780731, 77.272491,0.000100,0.476197,0.213015, 749.91011,     0.00000, 0.000000e+00, -1.2, 45994, 1.721564e+07,1.606206e+07,1.085258e+07,4.976631e+06,2.520180e+05,1.152530e+05,76.098808, 76.931229,0.000100,0.482667,0.204841,
cGGIQYLQSAIESR,Yes, 33, 2,  791.38811,40.561,33.239,17.030,6.502,2.005,0.522,97.432, 791.38954,   97.85000, 1.900000e-08, -1.8, 32943,3.898096e+07,3.116876e+07,1.480181e+07,5.334316e+06,7.185820e+05,2.376312e+05,56.754276, 56.977348,0.000100,0.444318,0.000000, 791.89325,   75.38000, 5.200000e-07, -638.7, 32777,2.083293e+07,2.056262e+07,1.261329e+07,6.444038e+06,4.214039e+06,2.425943e+06,56.799297, 57.024158,0.000100,0.496735,0.253395, 791.39041,   83.09000, 5.600000e-08, -2.9, 32594,2.086174e+07,2.298099e+07,1.755137e+07,9.993745e+06,3.658714e+06,6.080890e+05,56.436745, 56.661243,0.000100,0.524169,0.330344, 791.89122,   30.52000, 4.400000e-03, -636.1, 32374,1.369000e+07,2.033026e+07,1.741214e+07,1.001313e+07,5.928939e+06,1.681298e+06,56.531296, 56.704594,0.000100,0.597593,0.521500, 792.39380,   37.89000, 3.900000e-04, -1271.6, 32399,1.198118e+07,2.037731e+07,2.025239e+07,1.491351e+07,6.906482e+06,5.586130e+06,56.648739, 56.847668,0.000100,0.629736,0.654199, 791.89142,   54.07000, 3.900000e-05, -636.4, 32228,1.165898e+07,2.128708e+07,1.909593e+07,1.338519e+07,7.757205e+06,5.105226e+06,56.629906, 56.828182,0.000100,0.646119,0.651465, 791.89232,   49.61000, 2.500000e-05, -637.5, 32081,1.036706e+07,1.833778e+07,1.927946e+07,1.379372e+07,7.532764e+06,3.494811e+06,56.416725, 56.588772,0.000100,0.638839,0.658255, 791.38954,    0.00000, 0.000000e+00, -1.8, 32943,1.036939e+07,2.006399e+07,2.153475e+07,1.548520e+07,9.417205e+06,4.230028e+06,56.358639, 56.539242,0.000100,0.659276,0.693734, 791.89314,   42.89000, 9.500000e-05, -638.6, 32082,8.652976e+06,1.621059e+07,1.784724e+07,1.357314e+07,8.564884e+06,4.148321e+06,56.253433, 56.410831,0.000100,0.651982,0.700982, 792.39539,   27.43000, 2.700000e-03, -1273.6, 32244,8.127617e+06,1.404758e+07,1.648925e+07,1.235560e+07,6.867468e+06,2.793839e+06,56.321693, 56.496521,0.000100,0.633482,0.677402, 792.39685,   32.16000, 9.600000e-04, -1275.5, 32271,7.869401e+06,1.635332e+07,1.731411e+07,1.343426e+07,7.379894e+06,3.044297e+06,56.395599, 56.545567,0.000100,0.675123,0.709942, 792.39490,    32.48000, 3.200000e-03, -1273.0, 32220, 9.803386e+06,1.715413e+07,1.917548e+07,1.327957e+07,7.749958e+06,2.113139e+06,56.189182, 56.339649,0.000100,0.636339,0.659471,
TVYSHLFDHVVNR,Yes, 18, 4,  397.45731,38.925,35.349,17.431,6.113,1.696,0.394,97.300, 397.45776,   22.69000, 1.100000e-02, -1.1, 26566,6.572462e+07,5.716857e+07,2.425320e+07,9.416536e+06,5.435800e+05,0.000000e+00,47.559387, 48.048294,0.000100,0.465189,-0.000000, 397.70902,   36.36000, 3.900000e-04, -634.5, 26971,3.185136e+07,3.480554e+07,1.938852e+07,6.939217e+06,2.800190e+05,1.345372e+05,48.226643, 49.189850,0.000100,0.522160,0.141707, 397.45813,   38.79000, 2.300000e-04, -2.1, 26113,5.229470e+07,5.186980e+07,3.244417e+07,1.986641e+07,2.026602e+06,2.071900e+05,47.074383, 47.717812,0.000100,0.497960,0.170915, 397.70844,   38.38000, 2.500000e-04, -633.0, 25951,4.382230e+07,5.384191e+07,3.308522e+07,1.706072e+07,5.138609e+06,5.263700e+05,47.242756, 47.819130,0.000100,0.551296,0.275157, 397.71045,   35.53000, 5.400000e-04, -638.1, 26154,3.416951e+07,5.151243e+07,4.243625e+07,2.148912e+07,5.774785e+06,3.940150e+05,47.551060, 48.019718,0.000100,0.601205,0.453383, 397.45752,   23.39000, 6.400000e-03, -0.5, 26084,3.664514e+07,5.346535e+07,4.019274e+07,1.981074e+07,6.370038e+06,5.773090e+05,47.453087, 48.105324,0.000100,0.593331,0.410359, 397.45776,    0.00000, 0.000000e+00, -1.1, 26566,2.877979e+07,4.417421e+07,3.563994e+07,1.944702e+07,7.643502e+06,9.581160e+05,46.996159, 47.472198,0.000100,0.605508,0.465198, 397.45776,    0.00000, 0.000000e+00, -1.1, 26566,2.475759e+07,4.788549e+07,3.968867e+07,2.321778e+07,8.930889e+06,1.650991e+06,46.957947, 47.401787,0.000100,0.659189,0.570827, 397.45776,    0.00000, 0.000000e+00, -1.1, 26566,2.124841e+07,4.092084e+07,3.417684e+07,2.212826e+07,7.142378e+06,1.769125e+06,46.980541, 47.325478,0.000100,0.658217,0.578969, 397.70900,   35.59000, 4.600000e-04, -634.5, 26261,2.636179e+07,4.309984e+07,3.677838e+07,1.861832e+07,6.051017e+06,1.257187e+06,47.228348, 47.921478,0.000100,0.620484,0.498480, 397.45844,   18.60000, 1.800000e-02, -2.9, 26200,2.593157e+07,4.781845e+07,4.272069e+07,2.402587e+07,7.234011e+06,1.717902e+06,47.053844, 47.506660,0.000100,0.648386,0.563037, 397.45776,     0.00000, 0.000000e+00, -1.1, 26566, 2.538479e+07,4.755282e+07,3.970492e+07,2.820512e+07,7.221773e+06,3.132479e+06,46.677166, 47.200970,0.000100,0.651966,0.576735,
SSVVGGFVSHYLLEK,Yes, 22, 3,  541.29100,37.829,35.289,17.947,6.506,1.869,0.450,100.423, 541.29144,   21.05000, 1.100000e-02, -0.8, 36894,5.587027e+07,3.915824e+07,1.766667e+07,1.127850e+05,3.239511e+04,9.732372e+03,62.399529, 63.126122,0.000100,0.412068,0.000000, 541.29144,    0.00000, 0.000000e+00, -0.8, 36894,2.802952e+07,1.932539e+07,1.660748e+07,1.031344e+07,6.520584e+06,2.529579e+06,61.856956, 63.774616,0.000100,0.408097,0.236315, 541.29211,   29.63000, 4.700000e-03, -2.1, 36358,4.427860e+07,4.041413e+07,2.466107e+07,4.187600e+06,1.636042e+06,1.099113e+06,62.063736, 62.427872,0.000100,0.477185,0.024086, 541.29223,   21.49000, 9.600000e-03, -2.3, 36159,3.898395e+07,4.309445e+07,2.975719e+07,2.597112e+06,1.320481e+06,0.000000e+00,62.126041, 62.551144,0.000100,0.525040,0.148394, 541.29144,    0.00000, 0.000000e+00, -0.8, 36894,2.259239e+07,3.099612e+07,2.468486e+07,4.309408e+06,2.970102e+06,0.000000e+00,62.320389, 62.746620,0.000100,0.578410,0.330588, 541.62616,   19.03000, 1.600000e-02, -620.0, 36144,2.622288e+07,3.336689e+07,2.160910e+07,7.113348e+06,3.085361e+06,4.065110e+05,62.348614, 62.991650,0.000100,0.559943,0.252245, 541.29144,    0.00000, 0.000000e+00, -0.8, 36894,1.827895e+07,2.948996e+07,2.552395e+07,2.638678e+06,1.344240e+06,8.182622e+05,62.031940, 62.356571,0.000100,0.617346,0.413585, 541.29144,    0.00000, 0.000000e+00, -0.8, 36894,1.875941e+07,3.267623e+07,2.568696e+07,5.813762e+06,2.961746e+06,1.983684e+06,61.945709, 62.324558,0.000100,0.635284,0.457811, 541.29144,    0.00000, 0.000000e+00, -0.8, 36894,1.302102e+07,2.217324e+07,2.064127e+07,4.909240e+05,6.112802e+06,6.425600e+05,61.952648, 62.294125,0.000100,0.630024,0.494429, 541.29144,    0.00000, 0.000000e+00, -0.8, 36894,1.456204e+07,2.406746e+07,2.007306e+07,1.353094e+07,3.706568e+06,5.641000e+05,62.072426, 62.562023,0.000100,0.623033,0.507460, 541.29144,    0.00000, 0.000000e+00, -0.8, 36894,1.868607e+07,3.254898e+07,2.828925e+07,9.376672e+06,8.538435e+06,1.373668e+06,61.978798, 62.338440,0.000100,0.635287,0.523845, 541.29144,     0.00000, 0.000000e+00, -0.8, 36894, 3.108887e+07,4.555309e+07,4.368838e+07,2.964313e+07,1.451457e+07,2.423990e+06,61.559685, 61.874332,0.000100,0.594362,0.517445,
QREEESQQQAVLAQEcR,Yes, 55, 3,  696.99574,31.931,33.201,20.556,9.398,3.467,1.082,121.781, 697.33112,   54.38000, 1.100000e-05, -481.6, 12827,2.623662e+07,2.718746e+07,1.596502e+07,7.917344e+06,2.815162e+06,6.582550e+05,27.579842, 27.757011,0.000100,0.508899,0.001894, 697.33112,    0.00000, 0.000000e+00, -481.6, 12827,1.476492e+07,1.865941e+07,1.356165e+07,9.139357e+06,5.017770e+06,3.207864e+06,27.681190, 27.836393,0.000100,0.558258,0.315519, 697.66787,   20.09000, 2.000000e-02, -965.3, 12498,9.702970e+06,1.269156e+07,1.232059e+07,8.668938e+06,6.750097e+06,3.176835e+06,27.326345, 27.468683,0.000100,0.566726,0.458583, 697.33112,    0.00000, 0.000000e+00, -481.6, 12827,7.582942e+06,9.356882e+06,1.046781e+07,1.001560e+07,8.083454e+06,4.933504e+06,27.370512, 27.488310,0.000100,0.552360,0.561875, 697.33112,    0.00000, 0.000000e+00, -481.6, 12827,3.122523e+06,6.824467e+06,9.688688e+06,1.044127e+07,1.027798e+07,6.481775e+06,27.554422, 27.658747,0.000100,0.686084,0.812737, 697.33112,    0.00000, 0.000000e+00, -481.6, 12827,1.781646e+06,4.649971e+06,7.164383e+06,6.806495e+06,6.769622e+06,3.748517e+06,27.507002, 27.591148,0.000100,0.722986,0.837444, 697.33112,    0.00000, 0.000000e+00, -481.6, 12827,1.084083e+06,3.470433e+06,4.922360e+06,5.589539e+06,5.023262e+06,3.504380e+06,27.191015, 27.242125,0.000100,0.761976,0.873015, 697.33112,    0.00000, 0.000000e+00, -481.6, 12827,1.833623e+06,4.565920e+06,6.817590e+06,1.030736e+07,9.194557e+06,6.410705e+06,27.074245, 28.042528,0.000100,0.713476,0.872151, 697.33112,    0.00000, 0.000000e+00, -481.6, 12827,2.364170e+05,8.101750e+05,1.612380e+06,1.649315e+06,1.773904e+06,4.728180e+05,27.020500, 27.051964,0.000100,0.774108,0.897214, 697.33112,    0.00000, 0.000000e+00, -481.6, 12827,7.734800e+05,2.449941e+06,4.265647e+06,5.343651e+06,4.339732e+06,3.387447e+06,26.927607, 26.992435,0.000100,0.760044,0.899788, 697.33112,    0.00000, 0.000000e+00, -481.6, 12827,8.137200e+05,2.651913e+06,3.790371e+06,3.843532e+06,3.756413e+06,3.083857e+06,27.097603, 27.138353,0.000100,0.765203,0.879757, 697.33112,     0.00000, 0.000000e+00, -481.6, 12827, 1.006307e+06,3.345622e+06,5.648922e+06,7.617696e+06,6.739916e+06,6.056654e+06,27.120956, 27.149834,0.000100,0.768768,0.916099,
IAQNESELISDEAQGDMALR,Yes, 52, 2, 1095.52076,28.770,32.698,21.770,10.653,4.198,1.399,131.985,1095.52279,  127.60000, 1.100000e-12, -1.8, 31243,6.014033e+06,8.192566e+06,4.581041e+06,1.497378e+06,0.000000e+00,0.000000e+00,54.275894, 54.374771,0.000100,0.576673,0.000000,1096.52417,   65.12000, 7.800000e-07, -916.3, 31042,8.997611e+06,1.130767e+07,9.342197e+06,5.303707e+06,3.473348e+06,1.050820e+06,54.248177, 54.397762,0.000100,0.556883,0.229383,1096.02588,  122.13000, 4.600000e-12, -461.3, 30932,5.080168e+06,6.817662e+06,5.658433e+06,4.002570e+06,2.034457e+06,1.040167e+06,54.096653, 55.025093,0.000100,0.573017,0.303849,1095.52279,    0.00000, 0.000000e+00, -1.8, 31243,3.270393e+06,3.050377e+06,4.111352e+06,3.554598e+06,2.397481e+06,4.769990e+05,54.129692, 54.228123,0.000100,0.482596,0.422742,1095.52279,    0.00000, 0.000000e+00, -1.8, 31243,0.000000e+00,0.000000e+00,0.000000e+00,0.000000e+00,0.000000e+00,0.000000e+00,3275.403076, 3275.403076,0.000000,0.000000,0.000000,1095.52279,    0.00000, 0.000000e+00, -1.8, 31243,5.727190e+05,6.511170e+05,6.872460e+05,2.473250e+05,0.000000e+00,0.000000e+00,55.094131, 55.094131,0.000100,0.532030,0.164457,1096.52791,   27.16000, 2.800000e-03, -919.8, 30397,1.194684e+06,9.860230e+05,8.824540e+05,0.000000e+00,0.000000e+00,0.000000e+00,54.965141, 54.990505,0.000100,0.452157,0.000000,1095.52279,    0.00000, 0.000000e+00, -1.8, 31243,7.642630e+05,6.641690e+05,2.449750e+05,0.000000e+00,0.000000e+00,0.000000e+00,54.850571, 54.850571,0.000100,0.464964,-0.000000,1095.52279,    0.00000, 0.000000e+00, -1.8, 31243,7.138230e+05,5.136860e+05,2.159470e+05,0.000000e+00,0.000000e+00,0.000000e+00,54.775597, 54.775597,0.000100,0.418478,0.000000,1095.52279,    0.00000, 0.000000e+00, -1.8, 31243,4.463790e+05,2.089010e+05,2.273500e+05,2.470990e+05,0.000000e+00,0.000000e+00,54.798260, 54.798260,0.000100,0.318797,0.121032,1095.52279,    0.00000, 0.000000e+00, -1.8, 31243,1.333861e+06,6.520300e+05,6.707080e+05,0.000000e+00,0.000000e+00,0.000000e+00,54.837944, 54.837944,0.000100,0.328331,0.000000,1095.52279,     0.00000, 0.000000e+00, -1.8, 31243, 1.006706e+06,1.659580e+06,9.447780e+05,0.000000e+00,0.000000e+00,0.000000e+00,54.706619, 54.706619,0.000100,0.622431,-0.000000,
SAPSLEYcAELLGLDQDDLR,Yes, 43, 2, 1133.03880,27.472,32.554,22.271,11.143,4.477,1.517,136.018,1133.03467,   96.09000, 1.700000e-09,  3.6, 42428,5.113182e+06,5.347736e+06,3.503209e+06,7.557740e+05,0.000000e+00,0.000000e+00,70.796036, 70.922813,0.000100,0.511211,-0.000000,1133.54504,   53.92000, 8.800000e-06, -447.0, 42159,5.027672e+06,7.161227e+06,6.442094e+06,4.283523e+06,2.081682e+06,3.910750e+05,70.831108, 70.985992,0.000100,0.587520,0.302087,1133.54224,   60.37000, 2.200000e-06, -444.5, 42183,3.534709e+06,5.438879e+06,4.879055e+06,3.766433e+06,7.936420e+05,1.116927e+06,70.108673, 70.827026,0.000100,0.606099,0.404522,1134.04553,   17.11000, 2.500000e-02, -888.9, 41817,1.552648e+06,2.110857e+06,2.844082e+06,1.945221e+06,1.574647e+06,4.509000e+05,70.646446, 70.723892,0.000100,0.576185,0.489357,1133.03467,    0.00000, 0.000000e+00,  3.6, 42428,3.320180e+05,7.083500e+05,7.598520e+05,8.839300e+05,5.573940e+05,3.239270e+05,70.795219, 70.795219,0.000100,0.680865,0.682304,1133.03467,    0.00000, 0.000000e+00,  3.6, 42428,0.000000e+00,0.000000e+00,0.000000e+00,0.000000e+00,0.000000e+00,0.000000e+00,4259.198730, 4259.198730,0.000000,0.000000,0.000000,1133.03467,    0.00000, 0.000000e+00,  3.6, 42428,0.000000e+00,0.000000e+00,0.000000e+00,0.000000e+00,0.000000e+00,0.000000e+00,4246.329590, 4246.329590,0.000000,0.000000,0.000000,1133.03467,    0.00000, 0.000000e+00,  3.6, 42428,0.000000e+00,0.000000e+00,0.000000e+00,0.000000e+00,0.000000e+00,0.000000e+00,4242.248535, 4242.248535,0.000000,0.000000,0.000000,1133.03467,    0.00000, 0.000000e+00,  3.6, 42428,0.000000e+00,0.000000e+00,0.000000e+00,0.000000e+00,0.000000e+00,0.000000e+00,4242.879883, 4242.879883,0.000000,0.000000,0.000000,1133.03467,    0.00000, 0.000000e+00,  3.6, 42428,2.681410e+05,6.527990e+05,8.742690e+05,9.670190e+05,7.683110e+05,5.090500e+05,70.623100, 70.648849,0.000100,0.708840,0.783970,1133.03467,    0.00000, 0.000000e+00,  3.6, 42428,0.000000e+00,0.000000e+00,0.000000e+00,0.000000e+00,0.000000e+00,0.000000e+00,4247.405762, 4247.405762,0.000000,0.000000,0.000000,1133.03467,     0.00000, 0.000000e+00,  3.6, 42428, 0.000000e+00,0.000000e+00,0.000000e+00,0.000000e+00,0.000000e+00,0.000000e+00,4237.291016, 4237.291016,0.000000,0.000000,0.000000,
DVEDNcSLMYLNEATLLHNVK,Yes, 34, 3,  826.72615,23.291,30.406,23.456,13.329,6.108,2.368,153.574, 827.06213,   31.27000, 1.200000e-03, -406.7, 38776,9.112427e+06,1.326247e+07,9.164296e+06,5.572013e+06,1.825325e+06,9.795480e+05,65.312607, 66.018105,0.000100,0.592739,0.000846, 827.06329,   52.86000, 1.100000e-05, -408.1, 38578,9.316719e+06,1.258172e+07,1.043446e+07,9.409156e+06,5.432765e+06,3.885522e+06,65.400101, 65.578728,0.000100,0.574549,0.278100, 827.06219,   33.38000, 7.400000e-04, -406.8, 38488,8.510703e+06,1.421050e+07,1.180706e+07,1.013701e+07,6.408776e+06,4.309866e+06,65.193398, 65.848564,0.000100,0.625429,0.383456, 827.39673,   25.13000, 4.400000e-03, -811.8, 38189,5.302323e+06,7.917436e+06,9.291395e+06,7.009033e+06,4.951218e+06,2.228560e+06,65.218025, 65.324135,0.000100,0.598909,0.410998, 827.06213,    0.00000, 0.000000e+00, -406.7, 38776,2.218749e+06,5.174556e+06,6.270105e+06,6.516343e+06,4.633642e+06,2.563829e+06,65.357910, 65.458221,0.000100,0.699898,0.677487, 827.06213,    0.00000, 0.000000e+00, -406.7, 38776,2.197239e+06,4.051325e+06,4.558658e+06,5.159311e+06,3.715755e+06,1.907391e+06,65.388031, 65.463181,0.000100,0.648361,0.597861, 827.06213,    0.00000, 0.000000e+00, -406.7, 38776,1.217186e+06,3.206667e+06,4.390278e+06,4.705929e+06,3.637458e+06,1.682386e+06,65.154510, 65.204544,0.000100,0.724858,0.744447, 827.06213,    0.00000, 0.000000e+00, -406.7, 38776,1.320852e+06,2.981612e+06,3.456613e+06,6.245684e+06,4.235498e+06,3.737441e+06,64.990913, 65.067314,0.000100,0.693001,0.787183, 827.06213,    0.00000, 0.000000e+00, -406.7, 38776,6.134280e+05,4.810650e+05,2.003731e+06,1.628838e+06,1.432977e+06,1.476620e+06,65.026382, 65.026382,0.000100,0.439532,0.785341, 827.06213,    0.00000, 0.000000e+00, -406.7, 38776,1.278071e+06,3.763570e+06,5.153669e+06,5.407477e+06,4.265002e+06,2.613945e+06,65.081947, 65.157249,0.000100,0.746497,0.777639, 827.06213,    0.00000, 0.000000e+00, -406.7, 38776,1.160669e+06,4.512995e+06,5.293693e+06,5.320981e+06,4.689169e+06,2.790613e+06,65.137627, 65.237991,0.000100,0.795429,0.811632, 827.06213,     0.00000, 0.000000e+00, -406.7, 38776, 1.675243e+06,3.313142e+06,4.417123e+06,4.616300e+06,3.148907e+06,1.996818e+06,64.912033, 65.069321,0.000100,0.664171,0.657824,
IYSSDTIK,Yes, 10, 2,  463.74510,58.504,29.759,9.174,2.100,0.391,0.062,56.284, 463.74499,    0.00000, 0.000000e+00,  0.2, 12065,5.832820e+07,2.239477e+07,6.118465e+06,8.442950e+05,0.000000e+00,0.000000e+00,26.474705, 26.649151,0.000100,0.277427,0.000000, 463.74499,   17.37000, 2.500000e-02,  0.2, 12065,3.610910e+07,1.862546e+07,5.243385e+06,6.640270e+05,1.171100e+05,0.000000e+00,26.479946, 26.660580,0.000100,0.340287,0.000000, 463.74600,   22.04000, 1.300000e-02, -1.9, 11841,6.694765e+07,3.465087e+07,1.396113e+07,2.963405e+06,0.000000e+00,0.000000e+00,26.309952, 26.481121,0.000100,0.341057,0.046351, 463.74603,   18.04000, 2.900000e-02, -2.0, 11656,5.337759e+07,3.567760e+07,1.351635e+07,2.224915e+06,0.000000e+00,0.000000e+00,26.287928, 26.449059,0.000100,0.400624,0.140810, 463.74499,    0.00000, 0.000000e+00,  0.2, 12065,4.554811e+07,3.717702e+07,1.383200e+07,4.404235e+06,5.275520e+05,0.000000e+00,26.429583, 26.600845,0.000100,0.449404,0.237245, 463.74499,    0.00000, 0.000000e+00,  0.2, 12065,4.466504e+07,3.649988e+07,2.293790e+07,9.268334e+06,2.874595e+06,0.000000e+00,26.352486, 27.591148,0.000100,0.449700,0.346413, 463.74499,    0.00000, 0.000000e+00,  0.2, 12065,4.735916e+07,4.078255e+07,2.612398e+07,1.180327e+07,4.163172e+06,0.000000e+00,26.040325, 27.266687,0.000100,0.462693,0.381981, 463.74499,    0.00000, 0.000000e+00,  0.2, 12065,6.270820e+07,5.541301e+07,3.340853e+07,1.533411e+07,5.204961e+06,0.000000e+00,25.935562, 27.164791,0.000100,0.469120,0.381115, 463.74499,    0.00000, 0.000000e+00,  0.2, 12065,3.399714e+07,3.304719e+07,1.679263e+07,6.895429e+06,1.699997e+06,0.000000e+00,25.821810, 27.045189,0.000100,0.492915,0.375800, 463.74499,    0.00000, 0.000000e+00,  0.2, 12065,3.227291e+07,2.901867e+07,1.319009e+07,5.929984e+06,1.792882e+06,0.000000e+00,25.711721, 26.951679,0.000100,0.473453,0.333493, 463.74499,    0.00000, 0.000000e+00,  0.2, 12065,4.284220e+07,3.917209e+07,2.885751e+07,1.014650e+07,2.754675e+06,0.000000e+00,25.982048, 27.172909,0.000100,0.477625,0.414541, 463.74499,     0.00000, 0.000000e+00,  0.2, 12065, 4.257011e+07,3.835846e+07,2.168892e+07,7.625972e+06,2.070377e+06,0.000000e+00,25.968428, 27.173809,0.000100,0.473979,0.354410,
MSQSIIVSGESGAGK,Yes, 32, 2,  725.86394,43.110,32.600,16.052,5.910,1.765,0.446,91.724, 726.36786,    0.00000, 0.000000e+00, -694.7, 18353,4.729944e+07,3.693585e+07,1.901331e+07,4.131444e+06,4.383870e+05,0.000000e+00,35.712784, 35.874409,0.000100,0.438484,0.009700, 726.36786,   71.31000, 4.700000e-07, -694.7, 18353,1.875513e+07,2.150078e+07,1.031301e+07,4.723335e+06,1.803625e+06,1.267252e+06,35.765034, 35.962029,0.000100,0.534102,0.266180, 726.36786,    0.00000, 0.000000e+00, -694.7, 18353,4.941973e+07,4.407451e+07,2.695799e+07,1.210472e+07,4.021774e+06,1.190834e+06,35.493839, 36.424328,0.000100,0.471414,0.171465, 726.36047,   34.09000, 6.400000e-04, -684.5, 17870,4.669668e+07,4.741818e+07,2.951399e+07,1.537324e+07,4.332335e+06,1.565988e+06,35.633823, 36.561573,0.000100,0.503833,0.259501, 726.35968,   32.55000, 8.900000e-04, -683.4, 17911,2.113108e+07,2.180126e+07,1.436108e+07,7.937366e+06,2.973296e+06,1.283438e+06,35.742161, 36.620750,0.000100,0.507805,0.302276, 726.36786,    0.00000, 0.000000e+00, -694.7, 18353,1.562791e+07,1.715673e+07,1.328329e+07,7.362384e+06,2.996693e+06,4.515150e+05,35.677837, 36.601109,0.000100,0.523316,0.371447, 726.36786,    0.00000, 0.000000e+00, -694.7, 18353,3.030041e+07,4.019530e+07,2.868294e+07,1.848416e+07,7.173105e+06,2.803516e+06,35.302422, 36.229362,0.000100,0.570181,0.457182, 726.36786,    0.00000, 0.000000e+00, -694.7, 18353,3.047471e+07,4.152755e+07,3.373964e+07,2.156351e+07,9.742357e+06,3.433270e+06,35.315174, 36.316147,0.000100,0.576753,0.503114, 726.36786,    0.00000, 0.000000e+00, -694.7, 18353,1.956060e+07,2.615037e+07,2.362768e+07,1.436308e+07,6.839143e+06,3.052020e+06,35.221897, 36.157925,0.000100,0.572081,0.523937, 726.86836,   21.67000, 9.300000e-03, -1384.7, 17747,2.604672e+07,3.697319e+07,3.074132e+07,2.034082e+07,8.518456e+06,2.753238e+06,35.185085, 36.132362,0.000100,0.586691,0.526280, 726.36786,    0.00000, 0.000000e+00, -694.7, 18353,2.780935e+07,3.684841e+07,3.074605e+07,1.826895e+07,7.550794e+06,2.951180e+06,35.307522, 36.237057,0.000100,0.569899,0.486536, 726.87054,    51.63000, 8.700000e-05, -1387.7, 17898, 2.833883e+07,4.041479e+07,3.549640e+07,2.171073e+07,9.518083e+06,4.444956e+06,35.286243, 36.258545,0.000100,0.587821,0.539183,
IVEANPLLEAFGNAK,Yes, 31, 2,  793.43284,39.114,35.174,17.360,6.130,1.720,0.405,97.187, 793.93677,    0.00000, 0.000000e+00, -635.5, 38855,8.793902e+07,7.936778e+07,3.244098e+07,1.213144e+07,0.000000e+00,0.000000e+00,65.540443, 65.942284,0.000100,0.474385,-0.000000, 793.93677,   49.12000, 1.100000e-03, -635.5, 38855,5.585826e+07,6.029288e+07,3.199331e+07,2.085621e+07,4.100422e+06,1.813135e+06,65.654366, 65.983856,0.000100,0.519090,0.197893, 793.93677,    0.00000, 0.000000e+00, -635.5, 38855,7.089135e+07,8.364287e+07,5.580310e+07,3.082045e+07,9.787815e+06,4.268555e+06,65.369980, 65.748398,0.000100,0.541258,0.297202, 793.93677,    0.00000, 0.000000e+00, -635.5, 38855,4.716881e+07,6.242529e+07,4.698639e+07,2.846459e+07,1.044895e+07,5.000950e+06,65.349388, 65.727654,0.000100,0.569605,0.408534, 793.93677,    0.00000, 0.000000e+00, -635.5, 38855,3.052669e+07,5.414115e+07,5.061435e+07,3.769499e+07,1.789870e+07,8.973586e+06,65.508698, 65.842926,0.000100,0.639454,0.620765, 793.93323,   41.16000, 6.600000e-03, -631.1, 38220,2.920307e+07,5.286909e+07,5.037476e+07,3.791301e+07,1.610269e+07,7.397247e+06,65.488113, 65.791321,0.000100,0.644178,0.623124, 793.93677,    0.00000, 0.000000e+00, -635.5, 38855,2.561391e+07,4.881098e+07,5.133582e+07,3.890266e+07,1.713025e+07,8.510811e+06,65.254845, 66.460381,0.000100,0.655842,0.665733, 793.93677,    0.00000, 0.000000e+00, -635.5, 38855,2.153057e+07,4.641102e+07,5.003876e+07,3.934576e+07,1.989340e+07,1.002139e+07,65.117004, 66.285957,0.000100,0.683102,0.716125, 793.93677,    0.00000, 0.000000e+00, -635.5, 38855,1.720710e+07,3.871001e+07,4.312475e+07,3.878558e+07,1.879044e+07,1.051885e+07,65.100975, 66.383224,0.000100,0.692275,0.748070, 793.93677,    0.00000, 0.000000e+00, -635.5, 38855,1.874830e+07,4.076813e+07,4.827676e+07,3.678772e+07,1.703642e+07,9.177271e+06,65.182129, 65.520645,0.000100,0.684990,0.730063, 793.93677,    0.00000, 0.000000e+00, -635.5, 38855,1.980895e+07,4.354162e+07,4.947390e+07,3.632295e+07,2.101235e+07,1.034068e+07,65.288551, 66.448471,0.000100,0.687312,0.728567, 793.93677,     0.00000, 0.000000e+00, -635.5, 38855, 1.667164e+07,4.318599e+07,5.257460e+07,4.243134e+07,2.493311e+07,1.318533e+07,65.045021, 66.306084,0.000100,0.721478,0.788630,
LQQFFNER,Yes, 18, 2,  541.27489,52.627,32.474,11.330,2.870,0.583,0.100,66.574, 541.77789,    0.00000, 0.000000e+00, -930.2, 21801,8.456199e+07,4.700545e+07,1.702216e+07,1.649280e+06,5.756160e+05,0.000000e+00,41.249012, 41.989021,0.000100,0.357273,0.000000, 541.77789,    0.00000, 0.000000e+00, -930.2, 21801,4.561888e+07,2.826364e+07,1.370106e+07,1.239699e+07,7.508788e+06,3.321738e+06,41.156666, 41.581841,0.000100,0.382548,0.227662, 541.77789,   48.88000, 1.500000e-03, -930.2, 21801,6.859429e+07,5.250081e+07,2.828307e+07,9.932138e+06,5.114365e+06,1.560200e+05,40.669205, 41.140236,0.000100,0.433550,0.214489, 541.77891,   32.86000, 2.200000e-02, -932.0, 21618,4.646610e+07,4.509487e+07,2.674987e+07,9.039306e+06,1.840626e+06,6.728050e+05,41.019207, 41.220791,0.000100,0.492512,0.327188, 541.77692,   33.67000, 2.100000e-02, -928.3, 21695,3.724953e+07,4.180640e+07,3.042702e+07,1.287868e+07,3.192606e+06,7.114170e+05,40.998032, 41.330505,0.000100,0.528821,0.442758, 541.77800,   33.88000, 8.500000e-03, -930.3, 21526,3.391083e+07,4.248860e+07,2.927403e+07,1.088270e+07,1.875492e+06,7.439560e+05,41.076534, 41.246712,0.000100,0.556138,0.467112, 541.77801,   32.30000, 9.800000e-03, -930.4, 21246,3.828394e+07,5.096926e+07,3.268818e+07,1.611782e+07,5.669015e+06,3.535050e+05,40.391991, 41.572948,0.000100,0.571064,0.499632, 541.77789,    0.00000, 0.000000e+00, -930.2, 21801,4.089895e+07,5.812323e+07,4.629019e+07,2.256825e+07,5.789112e+06,2.315508e+06,40.620018, 40.832855,0.000100,0.586972,0.562360, 541.77789,    0.00000, 0.000000e+00, -930.2, 21801,3.149205e+07,4.801967e+07,3.662264e+07,1.685060e+07,3.277397e+06,6.613790e+05,40.567799, 40.744267,0.000100,0.603932,0.567415, 541.77789,    0.00000, 0.000000e+00, -930.2, 21801,3.338010e+07,4.264991e+07,3.199923e+07,1.576746e+07,3.833187e+06,0.000000e+00,40.569046, 41.836674,0.000100,0.560962,0.510050, 541.77805,   33.12000, 8.400000e-03, -930.4, 21543,4.056881e+07,5.077984e+07,4.296633e+07,1.862770e+07,4.340323e+06,8.259610e+05,40.574661, 41.579220,0.000100,0.555890,0.518934, 541.77873,    36.90000, 5.200000e-03, -931.7, 21569, 3.005192e+07,4.378398e+07,3.141326e+07,1.561317e+07,3.800171e+06,2.823500e+05,40.610844, 40.773312,0.000100,0.592990,0.548992,
