MYO7B_MOUSE
Unconventional myosin-VIIb OS=Mus musculus OX=10090 GN=Myo7b PE=1 SV=3
, , , , , , , , , , , ,Kidney_FASP_2h_K0, , , , , , , , , , , , , , , ,Kidney_FASP_2h_K1, , , , , , , , , , , , , , , ,Kidney_FASP_2h_K2, , , , , , , , , , , , , , , ,Kidney_FASP_2h_K3, , , , , , , , , , , , , , , ,Kidney_FASP_2h_K6, , , , , , , , , , , , , , , ,Kidney_FASP_2h_K7, , , , , , , , , , , , , , , ,Kidney_FASP_2h_K9, , , , , , , , , , , , , , , ,Kidney_FASP_2h_K13, , , , , , , , , , , , , , , ,Kidney_FASP_2h_K16, , , , , , , , , , , , , , , ,Kidney_FASP_2h_K21, , , , , , , , , , , , , , , ,Kidney_FASP_2h_K24, , , , , , , , , , , , , , , ,Kidney_FASP_2h_K31, , , , , , , , , , , , , , , , 
Peptide, UniqueToProtein, Exchangeable Hydrogens, Charge, m/z(Sequence), M0, M1, M2, M3, M4, M5, Total Labeling, m/z(Precursor), IonScore, Expectn, Error(ppm), Scan, I0, I1, I2, I3, I4, I5, Start Elution (min), End Elution (min), I0 Peak Width, Total Labeling, Net Labeling,m/z(Precursor), IonScore, Expectn, Error(ppm), Scan, I0, I1, I2, I3, I4, I5, Start Elution (min), End Elution (min), I0 Peak Width, Total Labeling, Net Labeling,m/z(Precursor), IonScore, Expectn, Error(ppm), Scan, I0, I1, I2, I3, I4, I5, Start Elution (min), End Elution (min), I0 Peak Width, Total Labeling, Net Labeling,m/z(Precursor), IonScore, Expectn, Error(ppm), Scan, I0, I1, I2, I3, I4, I5, Start Elution (min), End Elution (min), I0 Peak Width, Total Labeling, Net Labeling,m/z(Precursor), IonScore, Expectn, Error(ppm), Scan, I0, I1, I2, I3, I4, I5, Start Elution (min), End Elution (min), I0 Peak Width, Total Labeling, Net Labeling,m/z(Precursor), IonScore, Expectn, Error(ppm), Scan, I0, I1, I2, I3, I4, I5, Start Elution (min), End Elution (min), I0 Peak Width, Total Labeling, Net Labeling,m/z(Precursor), IonScore, Expectn, Error(ppm), Scan, I0, I1, I2, I3, I4, I5, Start Elution (min), End Elution (min), I0 Peak Width, Total Labeling, Net Labeling,m/z(Precursor), IonScore, Expectn, Error(ppm), Scan, I0, I1, I2, I3, I4, I5, Start Elution (min), End Elution (min), I0 Peak Width, Total Labeling, Net Labeling,m/z(Precursor), IonScore, Expectn, Error(ppm), Scan, I0, I1, I2, I3, I4, I5, Start Elution (min), End Elution (min), I0 Peak Width, Total Labeling, Net Labeling,m/z(Precursor), IonScore, Expectn, Error(ppm), Scan, I0, I1, I2, I3, I4, I5, Start Elution (min), End Elution (min), I0 Peak Width, Total Labeling, Net Labeling,m/z(Precursor), IonScore, Expectn, Error(ppm), Scan, I0, I1, I2, I3, I4, I5, Start Elution (min), End Elution (min), I0 Peak Width, Total Labeling, Net Labeling,m/z(Precursor), IonScore, Expectn, Error(ppm), Scan, I0, I1, I2, I3, I4, I5, Start Elution (min), End Elution (min), I0 Peak Width, Total Labeling, Net Labeling
EIFNVDSSQTK,Yes, 19, 2,  634.31187,48.846,33.113,13.111,3.816,0.898,0.180,75.272, 634.31392,   31.27000, 1.200000e-03, -3.2, 20390,1.188185e+07,9.190519e+06,3.270614e+06,3.138930e+05,7.387504e+04,0.000000e+00,38.091614, 38.699726,0.000100,0.436141,0.045272, 634.31392,    0.00000, 0.000000e+00, -3.2, 20390,6.595670e+06,5.389353e+06,3.511589e+06,6.314630e+05,2.424501e+05,1.019562e+05,38.638744, 39.731777,0.000100,0.449674,0.202595, 634.81525,   30.94000, 1.700000e-03, -794.2, 20054,9.726058e+06,1.378416e+07,7.895669e+06,2.770485e+06,1.135117e+06,5.161827e+05,38.372543, 39.401745,0.000100,0.586305,0.449717, 634.31392,    0.00000, 0.000000e+00, -3.2, 20390,8.112475e+06,8.307876e+06,4.271793e+06,1.767930e+05,7.318008e+04,3.369637e+04,38.413239, 39.597965,0.000100,0.505950,0.242623, 634.31429,   24.08000, 6.000000e-03, -3.8, 19933,7.378863e+06,7.405039e+06,5.534398e+06,1.504567e+06,1.810647e+06,8.356916e+05,38.566978, 38.699238,0.000100,0.500885,0.403616, 634.81732,   21.59000, 1.400000e-02, -797.5, 19779,7.384150e+06,7.265380e+06,3.735899e+06,6.950880e+05,2.882841e+05,1.330593e+05,38.499889, 38.606483,0.000100,0.495946,0.239540, 634.31392,    0.00000, 0.000000e+00, -3.2, 20390,6.526634e+06,8.042368e+06,4.625519e+06,4.018080e+05,1.666480e+05,7.691680e+04,38.146893, 38.279465,0.000100,0.552019,0.353100,, , , , , , , , , , , , , , , ,, , , , , , , , , , , , , , , , 634.31392,    0.00000, 0.000000e+00, -3.2, 20390,5.636848e+06,5.492899e+06,3.622295e+06,1.484944e+06,1.047481e+06,7.958060e+05,38.061897, 38.931831,0.000100,0.493533,0.381241,, , , , , , , , , , , , , , , , 634.31392,     0.00000, 0.000000e+00, -3.2, 20390, 6.947108e+06,8.205891e+06,6.510708e+06,2.563788e+06,5.270270e+05,1.728110e+05,38.109898, 38.299358,0.000100,0.541536,0.443511,
SIYDTVTDTAMVEK,Yes, 19, 2,  786.87672,39.408,33.122,17.543,6.932,2.221,0.602,100.899, 786.87811,   60.25000, 3.800000e-06, -1.8, 30814,1.835436e+07,1.729452e+07,7.975534e+06,1.490753e+06,9.622360e+05,3.356268e+05,53.680847, 54.446918,0.000100,0.485135,0.008509, 786.87836,   20.94000, 1.100000e-02, -2.1, 30581,2.295386e+07,4.697883e+07,2.608223e+07,1.428090e+07,4.350487e+06,2.424140e+06,53.578690, 54.497215,0.000100,0.671772,0.496243, 786.87906,   28.36000, 2.800000e-02, -3.0, 30456,3.590324e+07,4.953913e+07,1.257454e+07,9.583862e+06,1.545788e+06,9.213343e+05,52.527630, 54.219601,0.000100,0.579796,0.154985, 786.87872,   24.61000, 4.900000e-03, -2.5, 30232,2.780817e+07,3.693425e+07,1.074919e+07,9.263950e+06,9.299660e+05,5.603002e+05,53.508266, 54.153526,0.000100,0.570480,0.168029, 787.37952,   34.63000, 5.700000e-04, -639.4, 30278,5.545775e+07,7.573335e+07,2.768517e+07,1.762149e+07,6.233270e+06,4.522712e+06,53.575108, 54.345039,0.000100,0.577275,0.245122, 786.87811,    0.00000, 0.000000e+00, -1.8, 30814,2.907582e+07,4.487873e+07,1.709120e+07,1.087854e+07,3.558565e+06,2.148449e+06,53.483536, 54.291679,0.000100,0.606842,0.303168, 787.38068,   21.90000, 8.800000e-03, -640.9, 29925,3.397921e+07,5.140954e+07,1.849532e+07,1.177228e+07,3.266523e+06,1.702479e+06,53.315327, 53.997913,0.000100,0.602065,0.269931,, , , , , , , , , , , , , , , ,, , , , , , , , , , , , , , , , 786.87811,    0.00000, 0.000000e+00, -1.8, 30814,4.550574e+07,8.572383e+07,3.525339e+07,3.906098e+07,8.755749e+06,5.703410e+06,53.253288, 54.026554,0.000100,0.653236,0.466399,, , , , , , , , , , , , , , , , 786.87811,     0.00000, 0.000000e+00, -1.8, 30814, 4.198895e+07,9.177144e+07,3.637813e+07,4.577233e+07,8.719386e+06,4.173699e+06,53.231892, 53.781086,0.000100,0.686088,0.525265,
DVLSTDILILIHSSK,Yes, 20, 3,  551.98557,38.000,35.123,17.880,6.525,1.894,0.462,100.343, 551.98593,   32.26000, 9.700000e-04, -0.7, 46167,6.730272e+06,5.122638e+06,2.865006e+06,4.811270e+05,9.165200e+04,0.000000e+00,75.768570, 76.672935,0.000100,0.432184,-0.000000, 551.98593,    0.00000, 0.000000e+00, -0.7, 46167,1.319014e+06,8.528100e+05,6.749840e+05,3.383100e+04,0.000000e+00,0.000000e+00,75.991653, 76.972816,0.000100,0.392670,0.000000, 552.32013,   26.74000, 1.200000e-02, -606.8, 45905,2.836958e+06,3.639012e+06,2.152974e+06,6.540270e+05,7.877600e+04,0.000000e+00,76.389565, 76.545021,0.000100,0.561925,0.219554, 551.98591,   37.86000, 3.200000e-03, -0.6, 45594,4.425627e+06,5.440614e+06,4.476272e+06,1.225381e+06,4.747320e+05,7.084900e+04,76.199844, 76.509178,0.000100,0.551437,0.308346, 552.32135,   38.42000, 3.600000e-04, -609.1, 45557,4.434765e+06,5.920863e+06,4.569370e+06,2.892728e+06,7.717230e+05,7.599100e+04,75.898643, 76.598007,0.000100,0.571753,0.386686, 552.32074,   37.65000, 6.700000e-04, -608.0, 45385,3.611150e+06,4.932971e+06,4.439228e+06,1.933983e+06,2.708890e+05,9.003600e+04,76.373161, 76.605522,0.000100,0.577353,0.412815, 551.98593,    0.00000, 0.000000e+00, -0.7, 46167,2.704705e+06,5.381083e+06,4.568988e+06,2.390044e+06,7.390790e+05,0.000000e+00,76.219109, 76.449600,0.000100,0.665499,0.562848,, , , , , , , , , , , , , , , ,, , , , , , , , , , , , , , , , 552.32142,   20.07000, 2.200000e-02, -609.2, 45375,2.696672e+06,3.998369e+06,4.425635e+06,1.857934e+06,7.267450e+05,6.954000e+04,76.162102, 76.421875,0.000100,0.597214,0.516816,, , , , , , , , , , , , , , , , 551.98593,     0.00000, 0.000000e+00, -0.7, 46167, 3.124131e+06,6.051335e+06,6.522892e+06,3.406413e+06,1.391392e+06,1.271550e+05,75.918465, 76.201302,0.000100,0.659513,0.618660,
SSQVASQLNFGEEAFK,Yes, 37, 2,  871.42321,36.698,34.983,18.482,7.022,2.127,0.543,104.236, 871.42691,   65.61000, 9.700000e-07, -4.3, 30937,3.383508e+07,2.592635e+07,1.657904e+07,5.703614e+06,1.146029e+06,0.000000e+00,53.535000, 54.766029,0.000100,0.433831,0.006652, 871.42691,    0.00000, 0.000000e+00, -4.3, 30937,3.911098e+07,3.367043e+07,2.033467e+07,7.280259e+06,1.565000e+06,0.000000e+00,53.800858, 54.075275,0.000100,0.462624,0.013735, 871.42737,   33.20000, 7.700000e-04, -4.8, 30559,4.008980e+07,3.617099e+07,2.378052e+07,8.852345e+06,2.403368e+06,0.000000e+00,53.582100, 53.924034,0.000100,0.474306,0.056329, 871.92578,   45.67000, 6.500000e-05, -577.1, 30331,2.852730e+07,2.988236e+07,2.080015e+07,8.428074e+06,2.466898e+06,0.000000e+00,53.163769, 53.978840,0.000100,0.511600,0.161325, 872.43091,   30.35000, 1.400000e-03, -1157.1, 30372,2.706849e+07,2.293735e+07,2.074862e+07,1.157347e+07,5.559947e+06,0.000000e+00,53.403061, 54.049892,0.000100,0.458693,0.221657, 871.42691,    0.00000, 0.000000e+00, -4.3, 30937,2.523155e+07,2.349473e+07,1.812001e+07,1.005306e+07,3.651171e+06,2.746340e+05,53.458866, 53.956772,0.000100,0.482178,0.174570, 872.42841,   23.70000, 6.000000e-03, -1154.2, 30010,2.426332e+07,2.216870e+07,1.905803e+07,9.565244e+06,4.366313e+06,1.239950e+06,53.438301, 53.784557,0.000100,0.477444,0.203290,, , , , , , , , , , , , , , , ,, , , , , , , , , , , , , , , , 872.42963,   24.09000, 5.500000e-03, -1155.6, 30170,2.573545e+07,2.085684e+07,2.000233e+07,1.158628e+07,4.778499e+06,1.223292e+06,53.102230, 53.928802,0.000100,0.447646,0.237920,, , , , , , , , , , , , , , , , 871.42691,     0.00000, 0.000000e+00, -4.3, 30937, 1.745394e+07,1.676186e+07,1.516464e+07,9.250781e+06,5.026920e+06,3.732260e+05,53.383831, 53.682617,0.000100,0.489887,0.269440,
VFGFLPAMIGGQEGPAPTR,Yes, 39, 3,  649.00486,29.973,33.557,21.383,9.908,3.665,1.137,126.391, 649.34064,   55.99000, 9.800000e-06, -517.9, 43793,2.812267e+06,3.177721e+06,8.382000e+05,0.000000e+00,0.000000e+00,0.000000e+00,72.843773, 72.895432,0.000100,0.530505,-0.000000, 649.34021,   43.11000, 1.400000e-04, -517.2, 43643,2.240070e+06,3.381323e+06,1.520922e+06,2.179210e+05,5.596300e+04,0.000000e+00,72.273994, 73.204285,0.000100,0.601510,-0.000000, 649.34064,    0.00000, 0.000000e+00, -517.9, 43793,1.234479e+06,1.188940e+06,4.988890e+05,0.000000e+00,0.000000e+00,0.000000e+00,72.699608, 72.776001,0.000100,0.490604,-0.000000, 649.34064,    0.00000, 0.000000e+00, -517.9, 43793,0.000000e+00,0.000000e+00,0.000000e+00,0.000000e+00,0.000000e+00,0.000000e+00,4343.985352, 4343.985352,0.000000,0.000000,0.000000, 649.34064,    0.00000, 0.000000e+00, -517.9, 43793,1.818250e+05,9.001030e+05,3.906610e+05,0.000000e+00,0.000000e+00,0.000000e+00,72.682358, 72.682358,0.000100,0.831944,0.328253, 649.34064,    0.00000, 0.000000e+00, -517.9, 43793,8.817470e+05,1.484121e+06,1.482703e+06,4.278070e+05,0.000000e+00,0.000000e+00,72.795288, 72.898865,0.000100,0.627305,0.349848, 649.34064,    0.00000, 0.000000e+00, -517.9, 43793,0.000000e+00,0.000000e+00,0.000000e+00,0.000000e+00,0.000000e+00,0.000000e+00,4342.706055, 4342.706055,0.000000,0.000000,0.000000,, , , , , , , , , , , , , , , ,, , , , , , , , , , , , , , , , 649.34064,    0.00000, 0.000000e+00, -517.9, 43793,1.830130e+05,4.726350e+05,4.483230e+05,6.259960e+05,1.162620e+05,0.000000e+00,72.512978, 72.565285,0.000100,0.720867,0.687797,, , , , , , , , , , , , , , , , 649.34064,     0.00000, 0.000000e+00, -517.9, 43793, 5.726920e+05,6.304150e+05,2.601470e+05,0.000000e+00,1.306363e+06,0.000000e+00,72.378983, 72.404434,0.000100,0.523989,0.523874,
EGDFFFDSLR,Yes, 17, 2,  616.78276,47.822,33.728,13.445,3.891,0.903,0.177,76.785, 616.78478,    0.00000, 0.000000e+00, -3.3, 39524,1.527096e+07,1.023329e+07,3.555273e+06,4.777410e+05,0.000000e+00,0.000000e+00,66.750854, 66.903023,0.000100,0.401239,-0.000000, 616.78478,   37.23000, 6.100000e-04, -3.3, 39524,9.536960e+06,6.747431e+06,2.980371e+06,8.794400e+05,0.000000e+00,0.000000e+00,66.776497, 66.955254,0.000100,0.414350,0.023378, 616.78478,    0.00000, 0.000000e+00, -3.3, 39524,1.316182e+07,1.333152e+07,7.086026e+06,6.208820e+05,0.000000e+00,0.000000e+00,66.563705, 66.760010,0.000100,0.503203,0.228746, 616.78478,    0.00000, 0.000000e+00, -3.3, 39524,9.755643e+06,1.131550e+07,6.433799e+06,2.326834e+06,0.000000e+00,0.000000e+00,66.594849, 66.746109,0.000100,0.537014,0.332564, 616.78478,    0.00000, 0.000000e+00, -3.3, 39524,7.023321e+06,9.226506e+06,6.286127e+06,2.895308e+06,6.000340e+05,0.000000e+00,66.707184, 66.858551,0.000100,0.567791,0.444049, 616.78478,    0.00000, 0.000000e+00, -3.3, 39524,7.825763e+06,1.007585e+07,6.119384e+06,2.155632e+06,4.955730e+05,1.155040e+05,66.677338, 66.854729,0.000100,0.562846,0.396263, 616.78478,    0.00000, 0.000000e+00, -3.3, 39524,7.848720e+06,1.308282e+07,7.902328e+06,4.716353e+06,7.329360e+05,1.537670e+05,66.460381, 66.644981,0.000100,0.625029,0.533900,, , , , , , , , , , , , , , , ,, , , , , , , , , , , , , , , , 617.28694,   25.23000, 7.400000e-03, -818.1, 38906,5.600804e+06,7.265674e+06,6.037853e+06,2.933958e+06,8.289610e+05,0.000000e+00,65.904427, 66.581947,0.000100,0.564698,0.492362,, , , , , , , , , , , , , , , , 616.78478,     0.00000, 0.000000e+00, -3.3, 39524, 5.562122e+06,8.468445e+06,7.190668e+06,3.000459e+06,2.511910e+05,4.225280e+05,66.381599, 66.560265,0.000100,0.603571,0.552097,
ATDDITLLPFK,Yes, 13, 2,  617.33990,47.885,33.709,13.418,3.878,0.899,0.176,76.654, 617.33977,    0.00000, 0.000000e+00,  0.2, 36884,5.278820e+06,4.254906e+06,1.810734e+06,2.176660e+05,0.000000e+00,0.000000e+00,62.899933, 63.001118,0.000100,0.446300,0.073701, 617.33977,   39.28000, 2.900000e-04,  0.2, 36884,6.896296e+06,5.187279e+06,1.807763e+06,7.810001e+05,2.596005e+05,9.106400e+04,62.884083, 63.518299,0.000100,0.429283,0.044603, 617.33977,    0.00000, 0.000000e+00,  0.2, 36884,7.653637e+06,7.134871e+06,3.043186e+06,1.056927e+06,1.499520e+05,5.565439e+04,62.553394, 62.805389,0.000100,0.482461,0.167861, 617.33977,    0.00000, 0.000000e+00,  0.2, 36884,6.293474e+06,4.798027e+06,2.148995e+06,1.101519e+06,4.379450e+05,0.000000e+00,62.651718, 62.854351,0.000100,0.432586,0.120189, 617.33977,    0.00000, 0.000000e+00,  0.2, 36884,5.461934e+06,5.646140e+06,3.214402e+06,1.489241e+06,6.718200e+05,0.000000e+00,62.771694, 62.982746,0.000100,0.508292,0.313612, 617.84638,   28.05000, 2.300000e-03, -821.1, 36316,6.462056e+06,7.021780e+06,3.854318e+06,1.739162e+06,8.269840e+05,1.308300e+05,62.760254, 63.220806,0.000100,0.520755,0.331583, 617.33977,    0.00000, 0.000000e+00,  0.2, 36884,4.566783e+06,4.568902e+06,2.457028e+06,1.542784e+06,3.618790e+05,1.094270e+05,62.607601, 62.708511,0.000100,0.500116,0.310283,, , , , , , , , , , , , , , , ,, , , , , , , , , , , , , , , , 617.84677,   36.95000, 4.800000e-04, -821.7, 36328,5.641718e+06,5.012790e+06,4.182471e+06,2.027237e+06,2.117060e+05,2.899920e+05,62.536770, 62.917603,0.000100,0.470485,0.342587,, , , , , , , , , , , , , , , , 617.33977,     0.00000, 0.000000e+00,  0.2, 36884, 9.019373e+06,1.158020e+07,5.950915e+06,3.802950e+05,1.340524e+05,5.029018e+04,62.199821, 62.528248,0.000100,0.562157,0.335845,
IQFGSDSSQLASVSK,Yes, 31, 2,  777.39393,41.571,34.585,16.294,5.577,1.532,0.356,91.810, 777.40036,    0.00000, 0.000000e+00, -8.3, 24384,1.689430e+07,1.189922e+07,4.076590e+06,1.270782e+06,4.123680e+05,0.000000e+00,44.550365, 44.648109,0.000100,0.413260,0.000000, 777.40036,   54.24000, 8.200000e-06, -8.3, 24384,6.430551e+06,6.472825e+06,2.758218e+06,6.766710e+05,3.615204e+05,1.736150e+05,44.574406, 44.672894,0.000100,0.501638,0.091716, 777.40036,    0.00000, 0.000000e+00, -8.3, 24384,1.610779e+07,1.180549e+07,8.637692e+06,2.882287e+06,1.283369e+06,0.000000e+00,44.147102, 44.396564,0.000100,0.422935,0.109447, 777.40036,    0.00000, 0.000000e+00, -8.3, 24384,1.813980e+07,1.523299e+07,8.950835e+06,3.274450e+06,1.595860e+06,4.410990e+05,44.240238, 44.495213,0.000100,0.456449,0.093428, 777.40036,    0.00000, 0.000000e+00, -8.3, 24384,1.975063e+07,1.865286e+07,1.289276e+07,6.694451e+06,3.280034e+06,5.186640e+05,44.344772, 44.625408,0.000100,0.485707,0.238144, 777.40036,    0.00000, 0.000000e+00, -8.3, 24384,1.748950e+07,1.679912e+07,1.211393e+07,6.121560e+06,2.303436e+06,6.749100e+05,44.320396, 44.523369,0.000100,0.489933,0.245489, 777.40036,    0.00000, 0.000000e+00, -8.3, 24384,1.576530e+07,1.670843e+07,1.154624e+07,5.683754e+06,2.409083e+06,5.970350e+05,43.941952, 44.266449,0.000100,0.514522,0.285170,, , , , , , , , , , , , , , , ,, , , , , , , , , , , , , , , , 777.40036,    0.00000, 0.000000e+00, -8.3, 24384,1.857323e+07,1.893853e+07,1.585188e+07,6.929115e+06,3.231963e+06,1.029187e+06,43.963676, 45.085888,0.000100,0.504869,0.318244,, , , , , , , , , , , , , , , , 778.40418,    25.01000, 4.800000e-03, -1300.4, 23923, 1.882149e+07,2.007498e+07,1.509913e+07,6.547470e+06,3.855561e+06,2.608818e+06,43.719807, 44.155033,0.000100,0.516113,0.348276,
VLLPSPER,Yes, 16, 2,  455.77145,58.456,30.134,9.019,1.981,0.351,0.053,55.778, 455.77287,    0.00000, 0.000000e+00, -3.1, 19515,1.079599e+07,4.639115e+06,1.079206e+06,2.369921e+05,0.000000e+00,0.000000e+00,38.189327, 38.274220,0.000100,0.300556,0.000000, 455.77287,    0.00000, 0.000000e+00, -3.1, 19515,8.095414e+06,4.702060e+06,1.255173e+06,0.000000e+00,0.000000e+00,0.000000e+00,38.209869, 38.355576,0.000100,0.367421,0.042520, 455.77287,    0.00000, 0.000000e+00, -3.1, 19515,1.535556e+07,9.343693e+06,3.486659e+06,3.294539e+06,1.061809e+06,3.496999e+05,37.837574, 38.078110,0.000100,0.378299,0.208078, 455.77287,   26.42000, 3.300000e-03, -3.1, 19515,1.425660e+07,1.077051e+07,3.469757e+06,4.035357e+06,2.256740e+05,7.523988e+04,37.916187, 38.164047,0.000100,0.430354,0.282883, 455.77266,   24.24000, 5.900000e-03, -2.7, 19582,1.366994e+07,1.155686e+07,6.565940e+06,2.990661e+06,6.748840e+05,2.255164e+05,37.556847, 38.240013,0.000100,0.458118,0.347976, 455.77287,    0.00000, 0.000000e+00, -3.1, 19515,1.129399e+07,9.523683e+06,5.046139e+06,1.220289e+06,9.872730e+05,3.299182e+05,37.881294, 38.173294,0.000100,0.457481,0.328461, 455.77287,    0.00000, 0.000000e+00, -3.1, 19515,1.136757e+07,1.019289e+07,4.366528e+06,3.450933e+06,1.065695e+06,3.561193e+05,37.563671, 37.858162,0.000100,0.472758,0.373848,, , , , , , , , , , , , , , , ,, , , , , , , , , , , , , , , , 455.77287,    0.00000, 0.000000e+00, -3.1, 19515,1.155252e+07,1.305109e+07,5.495989e+06,1.897600e+06,1.847754e+06,6.174570e+05,37.004517, 37.674873,0.000100,0.530454,0.432358,, , , , , , , , , , , , , , , , 455.77287,     0.00000, 0.000000e+00, -3.1, 19515, 8.825237e+06,1.091309e+07,5.002410e+06,2.396939e+06,7.824470e+05,2.614674e+05,37.022869, 37.740196,0.000100,0.552888,0.466199,
WPTFGSAFFEVK,Yes, 17, 2,  708.35335,   40.756,35.378,16.559,5.489,1.435,0.313,92.270, , , , , , , , , , , , , , , , ,  708.85742,    0.00000, 0.000000e+00, -712.1, 43749,5.816391e+06,5.374607e+06,3.622263e+06,4.379780e+05,1.765079e+05,9.398600e+04,74.149612, 74.488625,0.000100,0.480262,0.114646, 708.85742,    0.00000, 0.000000e+00, -712.1, 43749,1.019331e+07,1.083139e+07,7.044731e+06,1.586566e+06,6.771249e+05,1.230720e+05,73.447502, 74.089096,0.000100,0.515174,0.197110, 708.85742,    0.00000, 0.000000e+00, -712.1, 43749,1.245913e+07,1.221399e+07,8.801005e+06,1.691716e+06,7.285551e+05,3.615360e+05,73.143730, 74.599884,0.000100,0.495032,0.187505, 708.85742,    0.00000, 0.000000e+00, -712.1, 43749,8.479484e+06,9.656076e+06,6.859605e+06,2.782739e+06,1.200489e+06,1.714919e+06,73.118729, 74.040451,0.000100,0.532439,0.368577, 708.85742,   35.14000, 5.100000e-04, -712.1, 43749,7.604189e+06,9.793348e+06,9.082598e+06,3.465003e+06,1.494831e+06,0.000000e+00,73.834061, 74.167397,0.000100,0.562916,0.430756, 708.85663,   26.61000, 3.200000e-03, -711.0, 43539,9.482216e+06,1.424975e+07,1.043383e+07,4.140808e+06,1.786381e+06,0.000000e+00,73.565567, 73.926323,0.000100,0.600445,0.428356,, , , , , , , , , , , , , , , ,, , , , , , , , , , , , , , , , 708.85742,    0.00000, 0.000000e+00, -712.1, 43749,5.028152e+06,6.277293e+06,5.417778e+06,2.505996e+06,1.081109e+06,4.577130e+05,72.953568, 73.840439,0.000100,0.555245,0.418722,, , , , , , , , , , , , , , , , 708.85742,     0.00000, 0.000000e+00, -712.1, 43749, 7.525064e+06,9.281487e+06,9.089699e+06,3.369631e+06,1.453689e+06,1.069590e+05,73.227936, 73.664513,0.000100,0.552254,0.427642,
