MYO1C_MOUSE
Unconventional myosin-Ic OS=Mus musculus OX=10090 GN=Myo1c PE=1 SV=2
, , , , , , , , , , , ,Heart_HW_2h_H0, , , , , , , , , , , , , , , ,Heart_HW_2h_H1, , , , , , , , , , , , , , , ,Heart_HW_2h_H2, , , , , , , , , , , , , , , ,Heart_HW_2h_H3, , , , , , , , , , , , , , , ,Heart_HW_2h_H6, , , , , , , , , , , , , , , ,Heart_HW_2h_H7, , , , , , , , , , , , , , , ,Heart_HW_2h_H9, , , , , , , , , , , , , , , ,Heart_HW_2h_H13, , , , , , , , , , , , , , , ,Heart_HW_2h_H16, , , , , , , , , , , , , , , ,Heart_HW_2h_H21, , , , , , , , , , , , , , , ,Heart_HW_2h_H24, , , , , , , , , , , , , , , ,Heart_HW_2h_H31, , , , , , , , , , , , , , , , 
Peptide, UniqueToProtein, Exchangeable Hydrogens, Charge, m/z(Sequence), M0, M1, M2, M3, M4, M5, Total Labeling, m/z(Precursor), IonScore, Expectn, Error(ppm), Scan, I0, I1, I2, I3, I4, I5, Start Elution (min), End Elution (min), I0 Peak Width, Total Labeling, Net Labeling,m/z(Precursor), IonScore, Expectn, Error(ppm), Scan, I0, I1, I2, I3, I4, I5, Start Elution (min), End Elution (min), I0 Peak Width, Total Labeling, Net Labeling,m/z(Precursor), IonScore, Expectn, Error(ppm), Scan, I0, I1, I2, I3, I4, I5, Start Elution (min), End Elution (min), I0 Peak Width, Total Labeling, Net Labeling,m/z(Precursor), IonScore, Expectn, Error(ppm), Scan, I0, I1, I2, I3, I4, I5, Start Elution (min), End Elution (min), I0 Peak Width, Total Labeling, Net Labeling,m/z(Precursor), IonScore, Expectn, Error(ppm), Scan, I0, I1, I2, I3, I4, I5, Start Elution (min), End Elution (min), I0 Peak Width, Total Labeling, Net Labeling,m/z(Precursor), IonScore, Expectn, Error(ppm), Scan, I0, I1, I2, I3, I4, I5, Start Elution (min), End Elution (min), I0 Peak Width, Total Labeling, Net Labeling,m/z(Precursor), IonScore, Expectn, Error(ppm), Scan, I0, I1, I2, I3, I4, I5, Start Elution (min), End Elution (min), I0 Peak Width, Total Labeling, Net Labeling,m/z(Precursor), IonScore, Expectn, Error(ppm), Scan, I0, I1, I2, I3, I4, I5, Start Elution (min), End Elution (min), I0 Peak Width, Total Labeling, Net Labeling,m/z(Precursor), IonScore, Expectn, Error(ppm), Scan, I0, I1, I2, I3, I4, I5, Start Elution (min), End Elution (min), I0 Peak Width, Total Labeling, Net Labeling,m/z(Precursor), IonScore, Expectn, Error(ppm), Scan, I0, I1, I2, I3, I4, I5, Start Elution (min), End Elution (min), I0 Peak Width, Total Labeling, Net Labeling,m/z(Precursor), IonScore, Expectn, Error(ppm), Scan, I0, I1, I2, I3, I4, I5, Start Elution (min), End Elution (min), I0 Peak Width, Total Labeling, Net Labeling,m/z(Precursor), IonScore, Expectn, Error(ppm), Scan, I0, I1, I2, I3, I4, I5, Start Elution (min), End Elution (min), I0 Peak Width, Total Labeling, Net Labeling
PQDGVAVLVR,Yes, 20, 2,  527.30620,54.347,31.777,10.654,2.609,0.514,0.086,63.392, 527.30870,   48.45000, 4.200000e-04, -4.7, 18967,1.701121e+07,8.543212e+06,2.548850e+06,2.083900e+05,0.000000e+00,0.000000e+00,35.950623, 36.065262,0.000100,0.334314,-0.000000, 527.30778,   60.96000, 1.100000e-04, -3.0, 18885,1.029795e+07,9.592501e+06,3.495343e+06,2.564210e+05,0.000000e+00,8.223220e+05,35.890308, 36.015327,0.000100,0.482267,0.271878, 527.30848,   64.76000, 6.900000e-05, -4.3, 18935,1.894978e+07,1.115575e+07,4.876806e+06,0.000000e+00,0.000000e+00,1.264682e+06,35.973660, 36.119099,0.000100,0.370555,0.086204, 527.30776,   60.59000, 1.100000e-04, -2.9, 18953,1.707236e+07,8.411915e+06,5.544011e+06,0.000000e+00,0.000000e+00,0.000000e+00,35.971214, 36.056557,0.000100,0.330083,0.074000, 527.30870,    0.00000, 0.000000e+00, -4.7, 18967,1.132023e+07,6.788499e+06,3.663132e+06,4.094220e+05,0.000000e+00,0.000000e+00,35.950863, 36.088737,0.000100,0.374874,0.090072, 527.30708,   60.40000, 1.100000e-04, -1.7, 18785,6.829642e+06,5.989664e+06,2.922911e+06,2.489600e+05,0.000000e+00,4.743160e+05,35.948574, 36.100674,0.000100,0.467238,0.273369, 527.30682,   51.26000, 1.100000e-03, -1.2, 18892,1.245090e+07,9.002650e+06,5.527476e+06,8.818250e+05,0.000000e+00,0.000000e+00,35.983994, 36.107296,0.000100,0.419635,0.207954, 527.30754,   46.08000, 2.800000e-03, -2.5, 18763,1.050179e+07,8.578010e+06,4.902829e+06,8.606920e+05,0.000000e+00,0.000000e+00,35.871059, 35.985519,0.000100,0.449586,0.247485, 527.30823,   48.68000, 1.900000e-03, -3.8, 18747,1.036101e+07,1.014448e+07,6.657365e+06,1.801435e+06,2.291220e+05,0.000000e+00,35.813637, 35.944233,0.000100,0.494720,0.365755, 527.30870,    0.00000, 0.000000e+00, -4.7, 18967,1.002842e+07,1.176701e+07,6.247926e+06,1.173393e+06,0.000000e+00,0.000000e+00,35.945877, 36.062904,0.000100,0.539884,0.386992, 527.30945,   44.89000, 2.800000e-03, -6.2, 18676,9.763749e+06,1.111294e+07,6.848652e+06,1.078863e+06,0.000000e+00,0.000000e+00,35.871452, 35.981873,0.000100,0.532313,0.402103, 527.30870,     0.00000, 0.000000e+00, -4.7, 18967, 5.708061e+06,6.333152e+06,4.523083e+06,1.790753e+06,0.000000e+00,0.000000e+00,35.984257, 36.102615,0.000100,0.525956,0.444995,
YLGLMENLR,Yes, 14, 2,  554.79459,50.131,31.215,13.178,4.155,1.051,0.223,75.354, 554.79923,   37.55000, 2.600000e-03, -8.4, 28400,8.397817e+06,5.961549e+06,2.741475e+06,3.468190e+05,8.775582e+04,0.000000e+00,49.944332, 50.018330,0.000100,0.415168,0.070771, 554.79518,   33.77000, 1.600000e-03, -1.1, 28318,6.866389e+06,4.565277e+06,2.853455e+06,1.490557e+06,1.049844e+06,0.000000e+00,49.862957, 50.287945,0.000100,0.399354,0.201294, 554.79578,   23.48000, 1.900000e-02, -2.1, 28393,1.114979e+07,6.133311e+06,8.033960e+05,3.848280e+05,1.439286e+05,0.000000e+00,50.018085, 50.066280,0.000100,0.354873,-0.000000, 554.79582,   33.67000, 2.100000e-03, -2.2, 28376,9.852764e+06,6.857937e+06,2.524362e+06,1.433533e+06,0.000000e+00,0.000000e+00,49.947872, 50.045216,0.000100,0.410392,0.067092, 554.79468,   33.54000, 2.200000e-03, -0.2, 28238,7.099273e+06,5.862131e+06,2.091827e+06,1.194495e+06,0.000000e+00,0.000000e+00,49.889736, 49.939030,0.000100,0.452276,0.146169, 554.79460,   33.63000, 4.400000e-03, -0.0, 28212,1.101133e+07,7.966114e+06,3.912063e+06,1.895546e+06,1.277734e+06,0.000000e+00,50.047230, 50.454346,0.000100,0.419767,0.169761, 554.79923,    0.00000, 0.000000e+00, -8.4, 28400,9.661323e+06,6.280740e+06,2.944698e+06,1.119503e+06,0.000000e+00,0.000000e+00,50.033035, 50.114552,0.000100,0.393973,0.048974, 555.29712,   53.19000, 7.200000e-05, -906.6, 28178,6.988716e+06,6.593537e+06,2.642517e+06,6.998040e+05,7.005660e+05,2.913873e+05,49.907707, 50.250465,0.000100,0.485452,0.241419, 555.29785,   37.55000, 2.300000e-03, -907.9, 28147,7.467689e+06,8.072311e+06,3.914616e+06,4.153320e+06,1.560010e+06,0.000000e+00,49.759964, 50.225311,0.000100,0.519454,0.430906, 554.79725,   53.14000, 6.400000e-05, -4.8, 28202,9.776886e+06,7.659516e+06,3.735602e+06,1.886533e+06,3.745350e+05,0.000000e+00,49.864109, 50.299259,0.000100,0.439283,0.179126, 555.29742,   53.12000, 7.200000e-05, -907.2, 28077,9.722301e+06,8.476403e+06,4.982028e+06,3.753249e+06,3.450780e+05,0.000000e+00,49.923244, 50.086155,0.000100,0.465770,0.313899, 555.29823,    49.54000, 1.200000e-04, -908.6, 28061, 6.242651e+06,5.917240e+06,3.602547e+06,5.338710e+05,0.000000e+00,0.000000e+00,49.992001, 50.096714,0.000100,0.486619,0.267251,
MSLLQLVEILR,Yes, 19, 2,  657.89431,44.129,32.957,15.501,5.435,1.530,0.361,88.190, 657.89900,   70.13000, 4.600000e-06, -7.1, 48885,1.367091e+07,1.002043e+07,4.141847e+06,1.143842e+06,2.163350e+05,0.000000e+00,80.697601, 80.906487,0.000100,0.422958,0.000000, 657.89814,   71.16000, 2.200000e-06, -5.8, 48838,1.614247e+07,1.135828e+07,5.553674e+06,1.721913e+06,2.718120e+05,0.000000e+00,80.653557, 80.915192,0.000100,0.413017,-0.000000, 657.89711,   74.17000, 1.100000e-06, -4.3, 48858,1.280308e+07,9.797264e+06,4.813073e+06,1.725050e+06,3.323280e+05,2.857300e+04,80.762840, 81.025269,0.000100,0.433501,0.024613, 657.89698,   59.49000, 1.700000e-05, -4.1, 48751,7.521161e+06,5.590659e+06,2.916003e+06,9.486500e+05,2.083120e+05,1.476500e+04,80.761635, 80.999741,0.000100,0.426383,0.021279, 657.89655,   88.45000, 3.100000e-07, -3.4, 48691,1.121951e+07,1.012911e+07,5.251917e+06,1.988220e+06,5.924240e+05,7.939300e+04,80.746910, 81.015457,0.000100,0.474462,0.134686, 657.89679,   39.91000, 4.000000e-04, -3.8, 48544,3.170339e+06,2.654989e+06,1.475482e+06,4.896210e+05,1.039530e+05,0.000000e+00,80.868584, 81.122063,0.000100,0.455766,0.105090, 658.39807,   44.02000, 1.600000e-03, -766.3, 48691,7.790526e+06,7.392683e+06,4.014960e+06,1.557501e+06,4.629840e+05,6.226800e+04,80.750504, 81.013115,0.000100,0.486899,0.175206, 658.39965,   44.07000, 2.200000e-04, -768.7, 48531,8.816087e+06,8.393871e+06,5.424559e+06,2.567127e+06,8.826700e+05,1.473580e+05,80.638229, 80.900208,0.000100,0.487733,0.244004, 658.40082,   54.63000, 2.400000e-04, -770.5, 48525,7.509321e+06,7.855352e+06,5.176036e+06,2.267330e+06,9.397450e+05,1.489050e+05,80.632484, 80.869148,0.000100,0.511261,0.292607, 658.39995,   59.50000, 2.300000e-05, -769.2, 48591,9.956715e+06,1.044956e+07,7.087594e+06,3.293828e+06,1.251787e+06,2.464030e+05,80.661728, 80.900444,0.000100,0.512076,0.304839, 658.40028,   75.91000, 4.000000e-06, -769.7, 48418,5.432437e+06,6.255664e+06,4.370301e+06,2.154939e+06,8.062830e+05,1.819670e+05,80.736488, 80.975174,0.000100,0.535216,0.363306, 658.40028,    59.70000, 1.200000e-04, -769.7, 48421, 5.352518e+06,6.657319e+06,4.986129e+06,2.545463e+06,8.724580e+05,1.892650e+05,80.787285, 81.032921,0.000100,0.554322,0.416747,
LLQSNPVLEAFGNAK,Yes, 30, 2,  800.93829,38.965,35.189,17.428,6.173,1.736,0.410,97.559, 800.94697,   50.52000, 2.000000e-04, -10.8, 32938,2.023864e+07,1.718213e+07,7.883769e+06,3.103810e+05,0.000000e+00,0.000000e+00,55.795883, 56.769329,0.000100,0.459160,-0.000000, 800.94614,   56.02000, 1.300000e-04, -9.8, 32891,1.212125e+07,1.036413e+07,3.891527e+06,0.000000e+00,0.000000e+00,0.000000e+00,55.697781, 56.640762,0.000100,0.460928,0.000000, 801.94403,   16.94000, 2.600000e-02, -1256.5, 33044,8.214592e+06,8.705322e+06,8.265200e+06,0.000000e+00,0.000000e+00,0.000000e+00,56.765224, 56.878307,0.000100,0.514502,0.238615, 800.94031,   50.92000, 5.000000e-05, -2.5, 32951,1.601591e+07,1.491170e+07,9.148053e+06,6.658610e+05,0.000000e+00,0.000000e+00,55.862202, 56.833260,0.000100,0.482149,0.034260, 801.44434,   52.26000, 1.500000e-05, -632.2, 32839,1.929836e+07,1.432520e+07,1.052764e+07,2.024628e+06,0.000000e+00,0.000000e+00,55.757004, 56.800644,0.000100,0.426046,0.034365, 800.94462,   50.68000, 3.200000e-04, -7.9, 32737,1.226434e+07,1.142725e+07,9.178329e+06,1.454016e+06,3.704630e+05,0.000000e+00,55.830269, 56.886021,0.000100,0.482334,0.144570, 801.44409,   52.84000, 1.200000e-05, -631.9, 32872,1.491352e+07,1.591246e+07,1.183991e+07,1.061836e+06,2.688020e+05,0.000000e+00,55.817154, 56.907055,0.000100,0.516203,0.178226, 801.94421,   17.95000, 2.100000e-02, -1256.7, 32767,1.082976e+07,1.239852e+07,9.588569e+06,2.230407e+06,3.485310e+05,0.000000e+00,55.786526, 56.759735,0.000100,0.533768,0.255861, 801.44617,   37.74000, 2.900000e-04, -634.5, 32709,1.016195e+07,1.427351e+07,1.245955e+07,5.981682e+06,4.605820e+05,3.555710e+05,56.549915, 56.751106,0.000100,0.584131,0.433927, 800.94697,    0.00000, 0.000000e+00, -10.8, 32938,1.025026e+07,1.542487e+07,1.288490e+07,3.328626e+06,2.916180e+05,0.000000e+00,55.740822, 56.710609,0.000100,0.600771,0.416731, 801.94525,   17.33000, 2.500000e-02, -1258.0, 32663,1.004971e+07,1.330067e+07,1.006674e+07,3.117072e+06,7.557210e+05,0.000000e+00,55.823200, 56.786312,0.000100,0.569613,0.336833, 801.44940,    37.31000, 3.200000e-04, -638.5, 32678, 6.060600e+06,7.760705e+06,5.608175e+06,2.752767e+06,1.221919e+06,0.000000e+00,55.950222, 56.946686,0.000100,0.561503,0.342686,
LLQFYAETcPAPER,Yes, 32, 2,  847.91396,36.382,33.793,18.732,7.669,2.523,0.698,107.846, 847.91873,   67.35000, 6.100000e-07, -5.6, 26765,1.037718e+07,8.164517e+06,4.052061e+06,1.005951e+06,0.000000e+00,0.000000e+00,47.523300, 47.695976,0.000100,0.440333,-0.000000, 847.91832,   70.07000, 3.000000e-07, -5.1, 26700,8.906339e+06,8.286859e+06,4.530058e+06,8.622050e+05,0.000000e+00,0.000000e+00,47.470634, 47.592346,0.000100,0.481985,-0.000000, 847.91771,   52.11000, 1.300000e-05, -4.4, 26792,9.884841e+06,9.138529e+06,4.779288e+06,2.691337e+06,2.539770e+05,2.194318e+05,47.595947, 47.717949,0.000100,0.480384,0.011336, 847.91820,   74.25000, 1.600000e-07, -5.0, 26755,7.264464e+06,7.206869e+06,4.726457e+06,1.336697e+06,2.424230e+05,2.213960e+05,47.575165, 47.724083,0.000100,0.498010,0.075571, 847.91686,   44.00000, 7.500000e-05, -3.4, 26621,6.229594e+06,7.040352e+06,4.559789e+06,1.542615e+06,2.321740e+05,2.048382e+05,47.505070, 47.605114,0.000100,0.530549,0.154205, 848.41827,   52.83000, 1.900000e-05, -595.1, 26594,6.790014e+06,8.473783e+06,5.945181e+06,3.205194e+06,6.891950e+05,5.410850e+05,47.603138, 48.329880,0.000100,0.555156,0.291418, 847.91937,   63.08000, 1.500000e-06, -6.4, 26720,6.478807e+06,6.450803e+06,5.558142e+06,2.100495e+06,6.963130e+05,6.143415e+05,47.656136, 47.779205,0.000100,0.498917,0.228337, 848.42084,   47.79000, 3.300000e-05, -598.1, 26583,3.325545e+06,5.496618e+06,3.066470e+06,1.638160e+06,1.202032e+06,1.060526e+06,47.515099, 47.614307,0.000100,0.623047,0.440153, 848.42023,   51.24000, 1.600000e-05, -597.4, 26540,4.715532e+06,7.814726e+06,6.268381e+06,3.206915e+06,1.301070e+06,6.255590e+05,47.377575, 47.931332,0.000100,0.623668,0.470772, 847.91950,   51.86000, 1.400000e-05, -6.5, 26593,7.358276e+06,8.156991e+06,7.421691e+06,4.314181e+06,2.446664e+06,0.000000e+00,47.507633, 48.388779,0.000100,0.525740,0.334507, 848.42003,   42.78000, 9.700000e-05, -597.2, 26449,5.684012e+06,7.311508e+06,7.125721e+06,3.917864e+06,1.572442e+06,1.174294e+06,47.510040, 48.528465,0.000100,0.562618,0.447992, 848.42158,    34.68000, 5.600000e-04, -599.0, 26445, 2.678828e+06,3.610661e+06,2.724195e+06,2.442337e+06,7.996880e+05,7.506220e+05,47.657833, 48.573467,0.000100,0.574079,0.467145,
QLLLTPSAVVIVEDAK,Yes, 28, 2,  848.49819,36.717,35.205,18.463,6.915,2.055,0.512,103.658, 848.50293,   40.58000, 1.600000e-04, -5.6, 36965,9.831277e+06,6.685160e+06,3.686097e+06,4.919550e+05,0.000000e+00,0.000000e+00,62.585724, 62.667843,0.000100,0.404758,0.000000, 848.50121,   55.38000, 6.400000e-06, -3.6, 36951,8.252857e+06,8.765564e+06,3.060888e+06,0.000000e+00,0.000000e+00,0.000000e+00,62.618168, 62.683033,0.000100,0.515063,0.000000, 848.50113,   45.90000, 6.900000e-05, -3.5, 36980,6.551228e+06,7.136764e+06,3.629262e+06,4.682550e+05,0.000000e+00,0.000000e+00,62.751717, 62.827400,0.000100,0.521389,0.018061, 848.50047,   45.28000, 5.700000e-05, -2.7, 36928,4.217071e+06,5.905774e+06,1.902349e+06,0.000000e+00,0.000000e+00,0.000000e+00,62.700668, 62.751972,0.000100,0.583410,0.026532, 849.00024,   45.98000, 4.900000e-05, -592.0, 36801,3.991999e+06,5.421518e+06,3.190716e+06,4.617530e+05,0.000000e+00,0.000000e+00,62.654713, 62.730980,0.000100,0.575929,0.186847, 848.50293,    0.00000, 0.000000e+00, -5.6, 36965,1.562972e+06,2.205736e+06,1.020579e+06,0.000000e+00,0.000000e+00,0.000000e+00,62.688087, 62.711697,0.000100,0.585276,0.113738, 849.00134,   45.12000, 5.900000e-05, -593.3, 36789,3.949219e+06,5.645338e+06,3.741350e+06,8.938630e+05,0.000000e+00,0.000000e+00,62.642570, 62.718517,0.000100,0.588390,0.268006, 848.50293,    0.00000, 0.000000e+00, -5.6, 36965,1.071080e+06,9.263560e+05,1.209171e+06,9.598910e+05,0.000000e+00,0.000000e+00,62.662361, 62.662361,0.000100,0.463773,0.376550, 849.00415,   16.68000, 2.700000e-02, -596.7, 36752,1.959403e+06,3.987669e+06,3.004220e+06,9.543850e+05,5.171960e+05,0.000000e+00,62.667244, 62.749931,0.000100,0.670526,0.489335, 849.00568,   21.05000, 1.100000e-02, -598.5, 36742,3.595878e+06,5.029444e+06,3.304760e+06,2.665181e+06,4.633410e+05,0.000000e+00,62.575672, 62.652756,0.000100,0.583102,0.370591, 848.50293,    0.00000, 0.000000e+00, -5.6, 36965,1.060024e+06,1.334488e+06,1.241626e+06,4.439410e+05,0.000000e+00,0.000000e+00,62.774734, 62.774734,0.000100,0.557311,0.349135, 848.50293,     0.00000, 0.000000e+00, -5.6, 36965, 1.352676e+06,1.830581e+06,1.802361e+06,0.000000e+00,0.000000e+00,0.000000e+00,62.744652, 62.770042,0.000100,0.575065,0.329854,
DGIIDFTSGSELLITK,Yes, 22, 2,  854.95382,37.052,34.964,18.323,6.913,2.081,0.528,103.309, 854.95929,   41.24000, 2.000000e-04, -6.4, 43523,8.936965e+06,9.097804e+06,3.591801e+06,1.313020e+05,0.000000e+00,0.000000e+00,72.483841, 72.669388,0.000100,0.504459,-0.000000, 854.95703,   19.37000, 1.500000e-02, -3.8, 43473,8.384551e+06,7.666118e+06,3.402824e+06,3.258300e+05,0.000000e+00,0.000000e+00,72.466209, 72.807816,0.000100,0.477620,0.000000, 854.95882,   31.05000, 1.200000e-03, -5.9, 43471,7.177908e+06,7.781905e+06,4.694450e+06,1.012222e+06,0.000000e+00,0.000000e+00,72.535965, 73.049751,0.000100,0.520187,0.093994, 854.95825,   18.33000, 2.600000e-02, -5.2, 43423,8.680294e+06,7.965454e+06,4.552545e+06,9.704810e+05,1.766940e+05,0.000000e+00,72.532860, 72.957085,0.000100,0.478528,-0.000000, 855.46094,   41.45000, 2.000000e-04, -593.5, 43309,8.271263e+06,9.304566e+06,5.489318e+06,1.029377e+06,1.165320e+05,0.000000e+00,72.510918, 73.030502,0.000100,0.529396,0.104408, 854.95929,    0.00000, 0.000000e+00, -6.4, 43523,6.629249e+06,7.733293e+06,4.217529e+06,1.692680e+06,2.732590e+05,0.000000e+00,72.554138, 72.717461,0.000100,0.538435,0.138518, 855.45862,   43.42000, 8.500000e-05, -590.8, 43334,7.783647e+06,7.302845e+06,4.800788e+06,1.519198e+06,3.929830e+05,0.000000e+00,72.546448, 72.951157,0.000100,0.484065,0.064636, 854.95929,    0.00000, 0.000000e+00, -6.4, 43523,8.868398e+06,1.147899e+07,7.491139e+06,2.324579e+06,2.015270e+05,1.354240e+05,72.530464, 72.859390,0.000100,0.564150,0.236485, 855.46467,   20.46000, 1.200000e-02, -597.9, 43222,6.835923e+06,1.089045e+07,6.676196e+06,1.723114e+06,8.605720e+05,1.345880e+05,72.495773, 72.839378,0.000100,0.614364,0.315405, 855.46243,   45.22000, 5.700000e-05, -595.2, 43285,6.707724e+06,8.714743e+06,5.357022e+06,2.163423e+06,5.870700e+05,0.000000e+00,72.559814, 72.964172,0.000100,0.565068,0.239841, 854.95929,    0.00000, 0.000000e+00, -6.4, 43523,5.716193e+06,8.088698e+06,5.955051e+06,2.058809e+06,5.846860e+05,0.000000e+00,72.602791, 73.029243,0.000100,0.585930,0.333819, 855.96521,    19.70000, 1.400000e-02, -1183.7, 43079, 3.524359e+06,6.736454e+06,4.964158e+06,2.156901e+06,1.261777e+06,0.000000e+00,72.548325, 73.001022,0.000100,0.656522,0.496502,
GEELLSPLNLEQAAYAR,Yes, 43, 3,  625.32664,33.911,34.950,19.737,7.967,2.553,0.687,111.975, 625.32825,   27.47000, 2.800000e-03, -2.6, 36526,2.013001e+06,1.576885e+06,6.147110e+05,3.509820e+05,1.006170e+05,0.000000e+00,61.918091, 61.969559,0.000100,0.439258,-0.000000, 625.32825,    0.00000, 0.000000e+00, -2.6, 36526,3.183580e+06,1.524954e+06,1.300687e+06,1.149222e+06,2.172760e+05,9.294100e+04,61.927284, 62.030079,0.000100,0.323870,0.121091, 625.32825,    0.00000, 0.000000e+00, -2.6, 36526,2.589871e+06,1.670027e+06,8.073620e+05,4.556280e+05,2.082900e+05,1.683050e+05,62.085590, 62.137894,0.000100,0.392035,0.059629, 625.66449,   45.40000, 5.500000e-05, -540.9, 36473,1.869800e+06,1.821333e+06,1.231743e+06,6.249520e+05,3.094720e+05,0.000000e+00,61.986340, 62.088875,0.000100,0.493435,0.097351, 625.32825,    0.00000, 0.000000e+00, -2.6, 36526,1.496415e+06,1.198531e+06,8.517430e+05,1.110899e+06,4.410050e+05,9.490100e+04,61.913864, 61.991909,0.000100,0.444733,0.298082, 625.32825,    0.00000, 0.000000e+00, -2.6, 36526,1.380978e+06,1.153934e+06,5.946240e+05,6.157188e+05,1.873330e+05,1.509500e+05,61.300732, 62.076916,0.000100,0.455217,0.148128, 625.32825,    0.00000, 0.000000e+00, -2.6, 36526,1.593022e+06,1.114592e+06,1.111261e+06,1.241592e+06,2.491340e+05,1.217570e+05,61.946140, 62.021454,0.000100,0.411651,0.316837, 625.32825,    0.00000, 0.000000e+00, -2.6, 36526,9.869690e+05,1.013762e+06,4.035310e+05,4.178474e+05,2.845360e+05,1.217820e+05,61.904179, 62.006447,0.000100,0.506696,0.173497, 625.32825,    0.00000, 0.000000e+00, -2.6, 36526,1.446776e+06,8.972290e+05,1.314523e+06,1.551979e+06,6.270820e+05,4.239600e+05,61.953342, 62.079597,0.000100,0.382776,0.491398, 625.32825,    0.00000, 0.000000e+00, -2.6, 36526,4.978280e+05,7.679980e+05,1.247740e+06,1.245819e+06,3.512980e+05,2.626840e+05,61.856777, 61.961369,0.000100,0.606717,0.682428, 625.32825,    0.00000, 0.000000e+00, -2.6, 36526,1.117176e+06,1.208379e+06,1.207811e+06,1.699127e+06,9.236300e+05,2.129060e+05,62.053154, 62.131001,0.000100,0.519609,0.513965, 625.32825,     0.00000, 0.000000e+00, -2.6, 36526, 8.632070e+05,9.087400e+04,1.046210e+05,1.083327e+05,0.000000e+00,0.000000e+00,62.241211, 62.241211,0.000100,0.095248,0.000000,
VLQSLGSEPIQYAVPVVK,Yes, 33, 2,  964.04858,31.560,34.934,20.802,8.758,2.906,0.805,118.460, 964.05255,   28.74000, 2.000000e-03, -4.1, 32632,8.858030e+06,7.086769e+06,4.988854e+06,1.529097e+06,0.000000e+00,0.000000e+00,56.176086, 56.276047,0.000100,0.444456,-0.000000, 964.05157,   46.62000, 4.200000e-05, -3.1, 32568,6.294537e+06,6.104692e+06,3.973309e+06,0.000000e+00,0.000000e+00,0.000000e+00,56.153423, 56.210674,0.000100,0.492344,-0.000000, 964.05131,   60.29000, 2.200000e-06, -2.8, 32676,4.413449e+06,4.824616e+06,3.042068e+06,7.810980e+05,0.000000e+00,0.000000e+00,56.318562, 56.369091,0.000100,0.522254,0.000000, 964.05054,   55.17000, 6.700000e-06, -2.0, 32619,7.783761e+06,9.102225e+06,4.751967e+06,1.732602e+06,0.000000e+00,0.000000e+00,56.271240, 56.338409,0.000100,0.539040,0.000000, 964.55377,   30.40000, 1.400000e-03, -524.3, 32498,5.854865e+06,6.907659e+06,3.983285e+06,1.399914e+06,0.000000e+00,0.000000e+00,56.237785, 56.311867,0.000100,0.541246,-0.000000, 964.05255,    0.00000, 0.000000e+00, -4.1, 32632,6.149265e+06,8.388348e+06,6.547281e+06,2.735884e+06,2.349310e+05,2.205940e+05,56.272911, 56.380527,0.000100,0.577010,0.228609, 964.55530,   22.46000, 7.800000e-03, -525.9, 32538,6.522683e+06,8.551447e+06,6.422287e+06,3.438529e+06,3.552530e+05,0.000000e+00,56.297871, 56.404369,0.000100,0.567293,0.219336, 964.05060,   48.90000, 2.800000e-05, -2.1, 32452,2.364970e+06,2.657052e+06,2.272603e+06,1.034917e+06,0.000000e+00,0.000000e+00,56.248211, 56.272713,0.000100,0.529080,0.166504, 964.05255,    0.00000, 0.000000e+00, -4.1, 32632,4.724222e+06,5.647236e+06,5.146124e+06,2.860217e+06,3.488150e+05,0.000000e+00,56.187187, 56.261631,0.000100,0.544498,0.258774, 964.55395,   27.50000, 2.600000e-03, -524.5, 32453,3.156044e+06,6.769355e+06,6.691735e+06,2.852407e+06,0.000000e+00,0.000000e+00,56.209934, 56.264927,0.000100,0.682023,0.522312, 964.05298,   20.18000, 1.300000e-02, -4.6, 32347,4.761052e+06,5.162429e+06,6.463317e+06,5.554332e+06,1.875374e+06,0.000000e+00,56.246304, 56.352627,0.000100,0.520224,0.415641, 964.05255,     0.00000, 0.000000e+00, -4.1, 32632, 1.999900e+06,3.243741e+06,3.557484e+06,2.010186e+06,3.544810e+05,0.000000e+00,56.379383, 56.454151,0.000100,0.618605,0.488490,
VNNININQGSITFAGGPGR,Yes, 36, 2,  965.00049,33.369,34.997,19.983,8.127,2.617,0.706,113.346, 965.00669,   63.66000, 1.400000e-06, -6.4, 26831,3.684089e+08,3.628885e+08,2.275073e+08,9.772463e+07,3.492437e+07,9.746625e+06,48.094536, 48.374317,0.000100,0.496226,0.031957, 965.00553,   78.85000, 5.500000e-08, -5.2, 26751,3.821751e+08,3.761809e+08,2.359543e+08,1.010545e+08,3.689251e+07,8.672012e+06,48.044785, 48.296368,0.000100,0.496048,0.031721, 965.50635,   74.27000, 1.100000e-07, -524.5, 26858,3.357813e+08,3.362333e+08,2.032460e+08,9.057885e+07,3.361936e+07,8.903399e+06,48.167374, 48.422813,0.000100,0.500336,0.029884, 965.00579,   78.59000, 5.800000e-08, -5.5, 26823,3.156291e+08,3.367025e+08,2.041201e+08,9.491087e+07,3.641002e+07,1.148675e+07,48.141331, 48.400791,0.000100,0.516152,0.058074, 965.50671,   59.14000, 2.800000e-06, -524.9, 26717,2.512354e+08,2.638188e+08,1.738603e+08,8.579542e+07,3.671061e+07,1.225537e+07,48.017323, 48.292553,0.000100,0.512216,0.092492, 965.00094,   48.70000, 2.700000e-05, -0.5, 26640,2.709805e+08,2.998557e+08,1.993353e+08,9.976897e+07,4.217379e+07,1.529194e+07,48.173889, 48.427479,0.000100,0.525292,0.130751, 965.00382,   51.42000, 1.900000e-05, -3.5, 26804,3.001662e+08,3.365465e+08,2.289842e+08,1.235734e+08,5.529804e+07,2.128568e+07,48.230080, 48.491112,0.000100,0.528569,0.163888, 965.00592,   73.92000, 1.700000e-07, -5.6, 26629,1.665273e+08,1.975997e+08,1.482124e+08,8.326324e+07,3.869544e+07,1.495232e+07,48.069878, 48.361858,0.000100,0.542667,0.239583, 965.50861,   75.03000, 9.200000e-08, -526.8, 26557,2.302325e+08,2.770897e+08,2.253665e+08,1.389515e+08,7.025062e+07,1.697914e+07,47.906219, 48.180317,0.000100,0.546181,0.290898, 965.51196,   71.04000, 1.700000e-06, -530.3, 26644,2.597812e+08,3.328061e+08,2.839441e+08,1.704134e+08,8.649618e+07,3.008682e+07,48.061775, 48.338802,0.000100,0.561615,0.340449, 966.00915,   40.91000, 1.500000e-04, -1045.8, 26539,2.360088e+08,3.106238e+08,2.726236e+08,1.729251e+08,8.799499e+07,3.278549e+07,48.133186, 48.378178,0.000100,0.568250,0.373808, 965.51070,    55.57000, 6.200000e-06, -529.0, 26558, 1.661363e+08,2.380641e+08,2.170121e+08,1.505794e+08,8.535769e+07,3.827960e+07,48.198570, 48.449631,0.000100,0.588975,0.456506,
IDYANLTGISVSSLSDSLFVLHVQR,Yes, 42, 3,  912.15186,20.236,30.894,25.045,14.219,6.318,2.331,160.569, 912.48499,   62.65000, 1.300000e-06, -365.5, 45391,3.577137e+08,3.071623e+08,1.823894e+08,9.117188e+07,3.624620e+07,1.316081e+07,74.400711, 74.580101,0.000100,0.461984,-0.000000, 912.48499,    0.00000, 0.000000e+00, -365.5, 45391,9.048549e+08,7.727123e+08,4.834296e+08,2.377661e+08,1.059533e+08,3.636804e+07,74.357132, 74.571655,0.000100,0.460615,0.000000, 912.48499,    0.00000, 0.000000e+00, -365.5, 45391,6.999812e+08,6.121780e+08,3.887887e+08,2.023414e+08,8.900795e+07,3.431040e+07,74.390518, 74.680794,0.000100,0.466542,0.000000, 912.48328,   53.79000, 9.000000e-06, -363.6, 45311,2.856095e+08,2.628352e+08,1.701440e+08,8.729455e+07,4.175650e+07,1.510886e+07,74.476982, 74.683792,0.000100,0.479237,-0.000000, 912.14847,   44.48000, 6.700000e-05,  3.7, 45223,2.592506e+08,2.441084e+08,1.662084e+08,8.727526e+07,4.297993e+07,2.016575e+07,74.467567, 74.650024,0.000100,0.484959,0.005303, 912.48499,    0.00000, 0.000000e+00, -365.5, 45391,1.108564e+08,1.096555e+08,7.764141e+07,4.062750e+07,2.097470e+07,8.896536e+06,74.500443, 74.738838,0.000100,0.497277,0.003277, 912.48499,    0.00000, 0.000000e+00, -365.5, 45391,4.513307e+08,4.471933e+08,3.146562e+08,1.911255e+08,9.518081e+07,4.515345e+07,74.390305, 74.623634,0.000100,0.497698,0.029804, 912.48499,    0.00000, 0.000000e+00, -365.5, 45391,2.561343e+08,2.487778e+08,1.774784e+08,1.122340e+08,5.992592e+07,2.864054e+07,74.402763, 74.609818,0.000100,0.492715,0.031452, 912.82556,   43.76000, 7.900000e-05, -739.1, 45136,2.688944e+08,2.713037e+08,1.921309e+08,1.278045e+08,7.583579e+07,3.649598e+07,74.468178, 74.629982,0.000100,0.502230,0.058851, 912.48499,    0.00000, 0.000000e+00, -365.5, 45391,3.849108e+08,4.031802e+08,3.123994e+08,2.094875e+08,1.261262e+08,6.568372e+07,74.421356, 74.617775,0.000100,0.511591,0.083269, 912.48499,    0.00000, 0.000000e+00, -365.5, 45391,3.223031e+08,3.546341e+08,2.833713e+08,1.938969e+08,1.203559e+08,6.448485e+07,74.474380, 74.682915,0.000100,0.523880,0.102768, 912.48499,     0.00000, 0.000000e+00, -365.5, 45391, 3.108785e+08,3.606336e+08,3.082027e+08,2.222772e+08,1.463051e+08,8.162294e+07,74.462883, 74.721123,0.000100,0.537047,0.143819,
GEELLSPLNLEQAAYAR,Yes, 43, 2,  937.48632,33.911,34.950,19.737,7.967,2.553,0.687,111.975, 937.48832,    0.00000, 0.000000e+00, -2.1, 36444,7.159277e+06,6.552617e+06,4.073607e+06,8.661310e+05,2.775962e+05,0.000000e+00,61.868225, 62.019985,0.000100,0.477878,0.000000, 937.48832,    0.00000, 0.000000e+00, -2.1, 36444,5.137441e+06,5.287211e+06,3.783867e+06,1.214202e+06,3.085250e+05,0.000000e+00,61.902027, 62.030079,0.000100,0.507183,0.072920, 937.48832,    0.00000, 0.000000e+00, -2.1, 36444,5.679333e+06,5.109830e+06,4.036993e+06,1.833839e+06,1.393023e+06,0.000000e+00,62.008354, 62.162956,0.000100,0.473608,0.147123, 937.48832,   56.09000, 5.500000e-06, -2.1, 36444,4.587771e+06,6.047266e+06,4.354517e+06,1.647837e+06,2.268370e+05,0.000000e+00,61.960972, 62.115940,0.000100,0.568617,0.225376, 937.48928,   27.15000, 2.800000e-03, -3.2, 36308,4.279872e+06,4.318003e+06,3.458752e+06,2.075144e+06,5.999070e+05,0.000000e+00,61.888176, 62.095177,0.000100,0.502217,0.176531, 937.48938,   36.17000, 4.400000e-04, -3.3, 36205,4.577685e+06,4.633846e+06,3.960140e+06,2.471779e+06,5.261240e+05,3.895690e+05,61.973530, 62.129414,0.000100,0.503048,0.212813, 937.98956,   35.79000, 4.900000e-04, -537.1, 36327,4.392655e+06,5.171980e+06,4.561567e+06,2.470280e+06,8.426400e+05,0.000000e+00,61.919624, 62.073730,0.000100,0.540740,0.290522, 937.48832,    0.00000, 0.000000e+00, -2.1, 36444,3.400919e+06,4.050216e+06,3.993378e+06,1.933637e+06,4.795980e+05,2.742060e+05,61.929577, 62.032253,0.000100,0.543570,0.327679, 937.48832,    0.00000, 0.000000e+00, -2.1, 36444,2.653456e+06,4.209703e+06,4.495300e+06,2.892920e+06,1.638551e+06,6.077920e+05,61.953342, 62.079597,0.000100,0.613377,0.537011, 937.48832,    0.00000, 0.000000e+00, -2.1, 36444,2.614978e+06,3.937496e+06,4.255004e+06,2.602654e+06,1.445814e+06,2.596800e+05,61.856777, 61.986530,0.000100,0.600917,0.501035, 937.48832,    0.00000, 0.000000e+00, -2.1, 36444,2.171106e+06,3.384811e+06,3.898016e+06,3.163005e+06,1.363218e+06,6.737080e+05,62.078342, 62.181648,0.000100,0.609226,0.575297, 937.48832,     0.00000, 0.000000e+00, -2.1, 36444, 2.417132e+06,3.143100e+06,4.031553e+06,2.586850e+06,1.099230e+06,9.109380e+05,62.053402, 62.770042,0.000100,0.565282,0.543212,
KRPETVATQFK,Yes, 20, 3,  435.58222,46.569,34.178,13.955,4.106,0.964,0.190,79.213, 435.58545,    0.00000, 0.000000e+00, -7.4, 7850,3.333176e+06,2.182166e+06,8.431310e+05,1.289080e+05,0.000000e+00,0.000000e+00,19.304512, 19.406288,0.000100,0.395654,0.000000, 435.58545,    0.00000, 0.000000e+00, -7.4, 7850,4.568582e+06,3.778885e+06,1.311555e+06,1.929620e+05,2.841300e+04,1.238769e+04,19.208019, 19.295168,0.000100,0.452698,0.029783, 435.58545,   23.57000, 1.000000e-02, -7.4, 7850,4.354985e+06,3.149409e+06,1.301385e+06,5.065180e+05,6.943800e+04,0.000000e+00,19.372980, 19.467590,0.000100,0.419675,0.016686, 435.58545,    0.00000, 0.000000e+00, -7.4, 7850,3.017590e+06,2.454681e+06,1.015805e+06,3.422100e+04,1.474677e+04,7.085740e+03,19.313963, 19.412209,0.000100,0.448567,0.040534, 435.58545,    0.00000, 0.000000e+00, -7.4, 7850,3.274709e+06,2.660117e+06,1.368246e+06,3.214880e+05,0.000000e+00,0.000000e+00,19.260017, 19.367933,0.000100,0.448222,0.099388, 435.58545,    0.00000, 0.000000e+00, -7.4, 7850,2.238145e+06,2.186489e+06,1.051272e+06,8.665600e+04,0.000000e+00,0.000000e+00,19.319241, 19.418343,0.000100,0.494163,0.169362, 435.58545,    0.00000, 0.000000e+00, -7.4, 7850,3.363048e+06,3.248426e+06,1.271089e+06,6.212150e+05,1.027870e+05,4.951442e+04,19.314405, 19.412069,0.000100,0.491332,0.168702, 435.58545,    0.00000, 0.000000e+00, -7.4, 7850,2.208059e+06,2.008735e+06,1.044062e+06,4.871690e+05,1.931660e+05,4.640100e+04,19.267841, 19.360134,0.000100,0.476365,0.211297, 435.58450,   28.45000, 1.300000e-02, -5.3, 7678,2.308635e+06,2.449209e+06,1.281349e+06,4.699940e+05,4.634800e+04,0.000000e+00,19.128353, 19.231291,0.000100,0.514773,0.253583, 435.58545,    0.00000, 0.000000e+00, -7.4, 7850,3.777821e+06,3.695612e+06,1.963234e+06,1.725900e+05,7.452657e+04,3.590084e+04,19.432514, 20.118509,0.000100,0.494500,0.191053, 435.58545,    0.00000, 0.000000e+00, -7.4, 7850,2.045923e+06,2.518170e+06,1.442644e+06,4.994520e+05,1.640150e+05,0.000000e+00,19.255291, 19.350443,0.000100,0.551735,0.345997, 435.58545,     0.00000, 0.000000e+00, -7.4, 7850, 2.574065e+06,2.626578e+06,1.298978e+06,5.096680e+05,2.200811e+05,1.060172e+05,19.280466, 19.418432,0.000100,0.505049,0.252362,
DQAVMISGESGAGK,Yes, 32, 2,  675.32191,45.934,31.898,14.968,5.251,1.498,0.362,85.387, 675.82489,    0.00000, 0.000000e+00, -745.4, 15323,0.000000e+00,0.000000e+00,0.000000e+00,0.000000e+00,0.000000e+00,0.000000e+00,1840.342285, 1840.342285,0.000000,0.000000,0.000000, 675.82489,    0.00000, 0.000000e+00, -745.4, 15323,0.000000e+00,0.000000e+00,0.000000e+00,0.000000e+00,0.000000e+00,0.000000e+00,1836.514771, 1836.514771,0.000000,0.000000,0.000000, 675.82489,   41.69000, 1.600000e-04, -745.4, 15323,3.886220e+05,4.053450e+05,2.096440e+05,1.615820e+05,4.318370e+05,0.000000e+00,30.282970, 30.282970,0.000100,0.510531,0.529064, 675.82489,    0.00000, 0.000000e+00, -745.4, 15323,1.715770e+05,2.806440e+05,3.104850e+05,0.000000e+00,0.000000e+00,0.000000e+00,30.763268, 30.763268,0.000100,0.620590,0.564154, 675.82489,    0.00000, 0.000000e+00, -745.4, 15323,1.609418e+06,8.333840e+05,7.836380e+05,0.000000e+00,0.000000e+00,0.000000e+00,30.707260, 30.734667,0.000100,0.341159,0.062105, 675.82489,    0.00000, 0.000000e+00, -745.4, 15323,3.637760e+05,2.744160e+05,2.565510e+05,0.000000e+00,0.000000e+00,0.000000e+00,30.630226, 30.630226,0.000100,0.429990,0.181879, 675.82556,   26.75000, 3.200000e-03, -746.3, 15288,2.004887e+06,1.229154e+06,1.294619e+06,1.759510e+05,0.000000e+00,0.000000e+00,30.286243, 30.695360,0.000100,0.380068,0.160116, 675.82489,    0.00000, 0.000000e+00, -745.4, 15323,2.102876e+06,1.815260e+06,2.559877e+06,3.710560e+05,2.190352e+05,0.000000e+00,30.227318, 30.581553,0.000100,0.463297,0.408657, 675.82489,    0.00000, 0.000000e+00, -745.4, 15323,0.000000e+00,0.000000e+00,0.000000e+00,0.000000e+00,0.000000e+00,0.000000e+00,1824.562256, 1824.562256,0.000000,0.000000,0.000000, 675.82489,    0.00000, 0.000000e+00, -745.4, 15323,3.153860e+05,3.253250e+05,1.549810e+05,0.000000e+00,0.000000e+00,0.000000e+00,30.326859, 30.326859,0.000100,0.507756,0.189744, 675.82489,    0.00000, 0.000000e+00, -745.4, 15323,0.000000e+00,0.000000e+00,0.000000e+00,0.000000e+00,0.000000e+00,0.000000e+00,1830.681641, 1830.681641,0.000000,0.000000,0.000000, 675.82489,     0.00000, 0.000000e+00, -745.4, 15323, 0.000000e+00,0.000000e+00,0.000000e+00,0.000000e+00,0.000000e+00,0.000000e+00,1836.279053, 1836.279053,0.000000,0.000000,0.000000,
NFHVFYQLLEGGEEETLR,Yes, 35, 3,  727.69188,27.509,33.971,22.517,10.536,3.881,1.193,132.100, 728.02936,    0.00000, 0.000000e+00, -464.2, 37175,5.836696e+06,6.008469e+06,4.580796e+06,0.000000e+00,0.000000e+00,0.000000e+00,62.795349, 62.998802,0.000100,0.507251,0.000000, 728.02936,    0.00000, 0.000000e+00, -464.2, 37175,7.100586e+06,7.889502e+06,4.129835e+06,0.000000e+00,0.000000e+00,0.000000e+00,62.835827, 62.988258,0.000100,0.526315,0.000000, 728.02936,   48.71000, 2.700000e-05, -464.2, 37175,6.369357e+06,9.765879e+06,6.405614e+06,1.388987e+06,0.000000e+00,0.000000e+00,62.929352, 63.131485,0.000100,0.605252,0.000000, 728.02936,    0.00000, 0.000000e+00, -464.2, 37175,2.744778e+06,4.114359e+06,2.167502e+06,0.000000e+00,0.000000e+00,0.000000e+00,62.955463, 63.031292,0.000100,0.599836,0.000000, 728.02936,    0.00000, 0.000000e+00, -464.2, 37175,4.718345e+06,5.859632e+06,4.116201e+06,5.679800e+05,0.000000e+00,0.000000e+00,62.883919, 63.037418,0.000100,0.553946,-0.000000, 728.02936,    0.00000, 0.000000e+00, -464.2, 37175,2.156999e+06,2.481049e+06,2.350021e+06,0.000000e+00,0.000000e+00,0.000000e+00,62.993122, 63.094852,0.000100,0.534934,-0.000000, 728.02936,    0.00000, 0.000000e+00, -464.2, 37175,4.074419e+06,6.716508e+06,3.339853e+06,3.065540e+06,0.000000e+00,0.000000e+00,62.844906, 62.973316,0.000100,0.622422,0.103053, 728.02936,    0.00000, 0.000000e+00, -464.2, 37175,4.054535e+06,2.931223e+06,3.626415e+06,3.253460e+06,0.000000e+00,0.000000e+00,62.764709, 62.917961,0.000100,0.419600,0.233471, 728.03076,   28.58000, 2.100000e-03, -466.1, 36881,2.989401e+06,4.802893e+06,3.270835e+06,1.741658e+06,0.000000e+00,0.000000e+00,62.852028, 62.980095,0.000100,0.616364,0.143873, 728.02936,    0.00000, 0.000000e+00, -464.2, 37175,1.790165e+06,3.290416e+06,2.362751e+06,0.000000e+00,0.000000e+00,0.000000e+00,62.813457, 62.940971,0.000100,0.647646,0.046433, 728.02936,    0.00000, 0.000000e+00, -464.2, 37175,2.197841e+06,2.967632e+06,4.465867e+06,2.051427e+06,1.120570e+05,0.000000e+00,62.958778, 63.164047,0.000100,0.574513,0.457313, 728.02936,     0.00000, 0.000000e+00, -464.2, 37175, 2.046888e+06,3.007203e+06,4.273907e+06,3.035476e+06,0.000000e+00,0.000000e+00,62.949135, 63.128811,0.000100,0.595004,0.517018,
YMDVQFDFK,Yes, 11, 2,  596.77080,46.520,32.278,14.576,4.918,1.335,0.304,83.041, 596.77296,    0.00000, 0.000000e+00, -3.6, 30670,1.467379e+07,9.024571e+06,3.927351e+06,1.419013e+06,0.000000e+00,0.000000e+00,53.252747, 53.375721,0.000100,0.380810,0.000000, 596.77296,    0.00000, 0.000000e+00, -3.6, 30670,1.025707e+07,6.879424e+06,2.535812e+06,2.617240e+05,0.000000e+00,0.000000e+00,53.137943, 53.262180,0.000100,0.401449,-0.000000, 596.77296,   55.93000, 1.100000e-03, -3.6, 30670,1.161060e+07,7.322939e+06,3.446765e+06,2.353230e+05,0.000000e+00,0.000000e+00,53.321449, 53.402931,0.000100,0.386771,-0.000000, 596.77296,    0.00000, 0.000000e+00, -3.6, 30670,1.139053e+07,9.488162e+06,3.419969e+06,2.482460e+05,0.000000e+00,0.000000e+00,53.271690, 53.396973,0.000100,0.454442,0.046579, 596.77296,    0.00000, 0.000000e+00, -3.6, 30670,7.171136e+06,5.149854e+06,2.305108e+06,4.788420e+05,0.000000e+00,0.000000e+00,53.215824, 53.343124,0.000100,0.417974,0.005695, 596.77296,    0.00000, 0.000000e+00, -3.6, 30670,9.004678e+06,7.150242e+06,4.343929e+06,9.080640e+05,0.000000e+00,0.000000e+00,53.331772, 53.484219,0.000100,0.442605,0.127230, 596.77296,    0.00000, 0.000000e+00, -3.6, 30670,6.890921e+06,7.300407e+06,2.920701e+06,3.882980e+05,0.000000e+00,0.000000e+00,53.310486, 53.411625,0.000100,0.514427,0.194639, 596.77296,    0.00000, 0.000000e+00, -3.6, 30670,6.946633e+06,7.112283e+06,3.843909e+06,1.561813e+06,0.000000e+00,0.000000e+00,53.239635, 53.365032,0.000100,0.505891,0.250051, 596.77296,    0.00000, 0.000000e+00, -3.6, 30670,1.010937e+07,9.909185e+06,5.755599e+06,2.144129e+06,4.299370e+05,0.000000e+00,53.098412, 53.256207,0.000100,0.495000,0.247002, 596.77296,    0.00000, 0.000000e+00, -3.6, 30670,6.450419e+06,7.389458e+06,3.728649e+06,8.664400e+05,0.000000e+00,0.000000e+00,53.210621, 53.287399,0.000100,0.533925,0.278897, 597.27471,   43.41000, 2.200000e-02, -845.1, 30311,6.290023e+06,7.354105e+06,4.277425e+06,2.511899e+06,4.242660e+05,0.000000e+00,53.280846, 53.380718,0.000100,0.538994,0.366702, 596.77296,     0.00000, 0.000000e+00, -3.6, 30670, 5.785489e+06,8.596295e+06,4.496313e+06,1.835438e+06,0.000000e+00,0.000000e+00,53.354359, 53.484856,0.000100,0.597721,0.418398,
HLGYKPEEYK,Yes, 17, 3,  421.88378,46.642,34.161,13.922,4.089,0.958,0.189,79.053, 421.88505,    0.00000, 0.000000e+00, -3.0, 8806,1.122951e+07,7.424200e+06,3.521632e+06,0.000000e+00,1.704510e+05,0.000000e+00,19.686386, 21.549576,0.000100,0.398001,0.000000, 421.88505,    0.00000, 0.000000e+00, -3.0, 8806,8.718426e+06,7.504468e+06,4.003280e+06,1.038106e+06,0.000000e+00,0.000000e+00,20.572630, 21.477013,0.000100,0.462585,0.142741, 421.88505,   23.01000, 7.200000e-03, -3.0, 8806,1.237043e+07,8.894089e+06,5.063837e+06,1.587396e+06,0.000000e+00,0.000000e+00,20.799671, 21.724035,0.000100,0.418260,0.076567, 421.88505,    0.00000, 0.000000e+00, -3.0, 8806,9.140224e+06,6.220106e+06,2.904660e+06,5.955800e+05,2.372354e+05,0.000000e+00,20.706039, 20.806526,0.000100,0.404946,0.007826, 421.88505,    0.00000, 0.000000e+00, -3.0, 8806,9.900151e+06,7.431224e+06,5.273691e+06,1.489070e+06,2.161840e+05,0.000000e+00,19.652422, 21.611423,0.000100,0.428773,0.159550, 421.88505,    0.00000, 0.000000e+00, -3.0, 8806,7.367834e+06,7.284003e+06,3.915149e+06,9.351880e+05,2.424310e+06,0.000000e+00,19.698441, 21.588778,0.000100,0.497139,0.314798, 421.88505,    0.00000, 0.000000e+00, -3.0, 8806,8.511805e+06,7.284099e+06,4.406910e+06,1.734262e+06,7.608190e+05,0.000000e+00,19.686375, 21.578800,0.000100,0.461138,0.202056, 421.88505,    0.00000, 0.000000e+00, -3.0, 8806,5.984790e+06,6.060271e+06,3.475999e+06,1.838725e+06,7.846490e+05,7.665000e+04,20.567059, 21.513313,0.000100,0.503133,0.302807, 421.88505,    0.00000, 0.000000e+00, -3.0, 8806,4.499201e+06,4.630579e+06,3.988599e+06,2.094405e+06,2.071810e+05,0.000000e+00,19.583509, 21.567650,0.000100,0.507195,0.397092, 421.88686,   18.21000, 2.200000e-02, -7.3, 8748,6.934739e+06,8.085557e+06,3.760756e+06,1.594412e+06,1.070368e+06,0.000000e+00,19.884085, 21.622658,0.000100,0.538309,0.314166, 422.21954,   18.59000, 1.900000e-02, -797.1, 8574,7.325605e+06,8.192981e+06,5.568941e+06,2.830456e+06,1.637380e+05,7.414700e+04,20.618732, 21.478048,0.000100,0.527946,0.364223, 421.88505,     0.00000, 0.000000e+00, -3.0, 8806, 4.817696e+06,5.291838e+06,3.989827e+06,1.483508e+06,0.000000e+00,0.000000e+00,20.644669, 20.769745,0.000100,0.523450,0.367157,
ENLIYTYIGPVLVSVNPYR,Yes, 27, 3,  737.40004,26.180,33.738,23.095,11.084,4.166,1.301,136.349, 737.73743,    0.00000, 0.000000e+00, -458.0, 47361,1.509133e+07,1.129723e+07,5.315573e+06,2.683679e+06,2.209650e+05,9.213872e+04,78.657021, 79.638023,0.000100,0.428111,0.000000, 737.73743,    0.00000, 0.000000e+00, -458.0, 47361,1.357237e+07,1.038823e+07,4.639145e+06,2.714387e+06,1.346773e+06,1.519840e+05,78.750107, 79.645767,0.000100,0.433555,-0.000000, 737.73743,    0.00000, 0.000000e+00, -458.0, 47361,1.102056e+07,7.243631e+06,4.935270e+06,1.751994e+06,1.178797e+06,5.000280e+05,78.919151, 79.734253,0.000100,0.396603,0.018591, 737.73743,    0.00000, 0.000000e+00, -458.0, 47361,7.022386e+06,4.975504e+06,3.397130e+06,1.209619e+06,1.011010e+05,0.000000e+00,79.081734, 79.723991,0.000100,0.414698,-0.000000, 737.73743,   20.72000, 1.100000e-02, -458.0, 47361,7.834286e+06,5.935206e+06,4.522689e+06,2.093880e+06,8.066630e+05,2.503890e+05,78.964500, 79.741577,0.000100,0.431040,0.000000, 737.73505,   31.67000, 1.100000e-03, -454.7, 47200,6.451375e+06,5.064472e+06,3.900127e+06,8.695410e+05,4.544130e+05,0.000000e+00,79.156136, 79.744072,0.000100,0.439783,-0.000000, 737.73743,    0.00000, 0.000000e+00, -458.0, 47361,4.234252e+06,3.912857e+06,2.566381e+06,1.599536e+06,1.053647e+06,1.037910e+05,79.077187, 79.402138,0.000100,0.480276,0.064278, 737.73743,    0.00000, 0.000000e+00, -458.0, 47361,1.424446e+07,1.130778e+07,1.021134e+07,5.052948e+06,2.534613e+06,1.353464e+06,79.151878, 79.523010,0.000100,0.442536,0.081072, 737.73743,    0.00000, 0.000000e+00, -458.0, 47361,9.203942e+06,8.996073e+06,7.399375e+06,4.515956e+06,3.228251e+06,1.801386e+06,78.928284, 79.460609,0.000100,0.494289,0.179293, 737.73743,    0.00000, 0.000000e+00, -458.0, 47361,9.828948e+06,9.290140e+06,8.373872e+06,6.153696e+06,3.469371e+06,2.076278e+06,78.905472, 79.540474,0.000100,0.485909,0.234117, 737.73743,    0.00000, 0.000000e+00, -458.0, 47361,4.429427e+06,4.205477e+06,3.874275e+06,2.656238e+06,1.544102e+06,2.868750e+05,79.156242, 79.578766,0.000100,0.487032,0.185007, 737.73743,     0.00000, 0.000000e+00, -458.0, 47361, 6.947579e+06,7.950449e+06,6.567368e+06,5.344314e+06,3.320319e+06,1.435772e+06,78.882378, 79.547684,0.000100,0.533658,0.246647,
GVSFYEVPPHLFAVADTVYR,Yes, 34, 3,  756.38803,24.971,33.366,23.581,11.649,4.497,1.440,140.663, 756.72632,    0.00000, 0.000000e+00, -447.6, 38006,8.399573e+06,1.064183e+07,7.326655e+06,3.619364e+06,1.375250e+05,3.970050e+05,64.293953, 64.931580,0.000100,0.558878,0.000000, 756.72632,    0.00000, 0.000000e+00, -447.6, 38006,1.014796e+07,4.095201e+06,2.059082e+06,0.000000e+00,0.000000e+00,0.000000e+00,64.214211, 64.392075,0.000100,0.287521,0.000000, 756.72632,    0.00000, 0.000000e+00, -447.6, 38006,3.036635e+07,8.362929e+06,5.837246e+06,1.045026e+06,1.678540e+05,1.822767e+05,63.651089, 64.490700,0.000100,0.215933,0.000000, 756.72632,    0.00000, 0.000000e+00, -447.6, 38006,1.928428e+07,1.113121e+07,7.053075e+06,1.336803e+06,8.129520e+05,1.446480e+05,64.231033, 64.384521,0.000100,0.365972,0.000000, 756.72632,   21.70000, 9.200000e-03, -447.6, 38006,2.353399e+07,9.267388e+06,6.728122e+06,2.170301e+06,2.141740e+05,3.308560e+05,63.572254, 64.400993,0.000100,0.282530,0.000000, 756.72632,    0.00000, 0.000000e+00, -447.6, 38006,1.168253e+07,3.775767e+06,3.625626e+06,1.212163e+06,8.683930e+05,1.084070e+05,64.278984, 64.433029,0.000100,0.244255,0.000000, 756.72632,    0.00000, 0.000000e+00, -447.6, 38006,1.869109e+07,7.633578e+06,5.252238e+06,2.766782e+06,3.438020e+05,3.816839e+05,63.539051, 64.401482,0.000100,0.289978,0.000000, 756.72632,    0.00000, 0.000000e+00, -447.6, 38006,1.370483e+07,7.668977e+06,6.487900e+06,3.847420e+06,6.508460e+05,5.971470e+05,63.462696, 64.407417,0.000100,0.358803,0.015402, 756.72668,   17.40000, 2.300000e-02, -448.1, 37953,4.667811e+06,6.299079e+06,4.474560e+06,2.091326e+06,1.012109e+06,1.147483e+06,64.338081, 64.516975,0.000100,0.574372,0.148803, 756.72632,    0.00000, 0.000000e+00, -447.6, 38006,5.112910e+06,7.149100e+06,5.321732e+06,1.669997e+06,1.564584e+06,7.993740e+05,64.325981, 64.453659,0.000100,0.583028,0.080320, 756.72632,    0.00000, 0.000000e+00, -447.6, 38006,2.502819e+06,4.921796e+06,2.844000e+06,2.292050e+06,9.351030e+05,5.238910e+05,63.629208, 64.553970,0.000100,0.662903,0.217708, 756.72632,     0.00000, 0.000000e+00, -447.6, 38006, 6.038762e+06,2.997592e+06,2.665571e+06,4.832920e+05,3.102700e+05,0.000000e+00,63.647881, 64.543068,0.000100,0.331726,0.000000,
LLGVEGTTLR,Yes, 14, 2,  529.81386,54.392,31.649,10.682,2.644,0.528,0.089,63.505, 529.81629,    0.00000, 0.000000e+00, -4.6, 22414,3.399166e+07,1.586266e+07,4.456523e+06,0.000000e+00,0.000000e+00,0.000000e+00,41.290764, 41.384464,0.000100,0.318180,-0.000000, 529.81629,   43.18000, 6.800000e-03, -4.6, 22414,2.140729e+07,1.083205e+07,2.926564e+06,0.000000e+00,0.000000e+00,0.000000e+00,41.144657, 41.244068,0.000100,0.335989,-0.000000, 529.81629,    0.00000, 0.000000e+00, -4.6, 22414,2.737428e+07,1.770553e+07,6.446249e+06,0.000000e+00,0.000000e+00,0.000000e+00,41.307713, 41.381283,0.000100,0.392760,0.051652, 529.81629,    0.00000, 0.000000e+00, -4.6, 22414,3.240817e+07,2.070879e+07,6.574595e+06,4.739440e+05,0.000000e+00,0.000000e+00,41.276466, 41.399773,0.000100,0.389871,0.034860, 529.81629,    0.00000, 0.000000e+00, -4.6, 22414,2.551784e+07,1.558053e+07,4.644596e+06,0.000000e+00,0.000000e+00,0.000000e+00,41.219620, 41.331699,0.000100,0.379103,0.004334, 529.81629,    0.00000, 0.000000e+00, -4.6, 22414,1.192279e+07,7.949492e+06,2.129218e+06,0.000000e+00,0.000000e+00,0.000000e+00,41.317539, 41.799782,0.000100,0.400029,0.039457, 529.81629,    0.00000, 0.000000e+00, -4.6, 22414,6.041343e+06,2.430282e+06,1.410159e+06,0.000000e+00,0.000000e+00,0.000000e+00,41.249454, 41.345062,0.000100,0.286873,0.018293, 529.81629,    0.00000, 0.000000e+00, -4.6, 22414,2.507576e+07,2.118857e+07,9.648976e+06,1.405096e+06,0.000000e+00,0.000000e+00,41.126278, 41.250462,0.000100,0.457989,0.213587, 529.81629,    0.00000, 0.000000e+00, -4.6, 22414,1.655164e+07,1.181115e+07,5.381165e+06,4.053600e+05,1.329776e+05,0.000000e+00,41.060841, 41.180946,0.000100,0.416431,0.132092, 529.81629,    0.00000, 0.000000e+00, -4.6, 22414,1.904196e+07,1.621148e+07,7.674373e+06,1.126542e+06,3.287040e+05,0.000000e+00,41.192715, 41.347923,0.000100,0.459855,0.225655, 529.81629,    0.00000, 0.000000e+00, -4.6, 22414,1.980531e+07,1.939778e+07,8.680286e+06,1.686423e+06,0.000000e+00,0.000000e+00,41.133217, 41.285034,0.000100,0.494802,0.282466, 530.31671,    35.29000, 2.300000e-02, -950.0, 22234, 1.767806e+07,1.510243e+07,1.054421e+07,1.701476e+06,0.000000e+00,0.000000e+00,41.261837, 41.409107,0.000100,0.460714,0.311625,
