MYO6_MOUSE
Unconventional myosin-VI OS=Mus musculus OX=10090 GN=Myo6 PE=1 SV=2
, , , , , , , , , , , ,LDLnD_SE_Band4_0ha, , , , , , , , , , , , , , , ,LDLnD_SE_Band4_0hb, , , , , , , , , , , , , , , ,LDLnD_SE_Band4_72ha, , , , , , , , , , , , , , , ,LDLnD_SE_Band4_72hb, , , , , , , , , , , , , , , ,LDLnD_SE_Band4_168ha, , , , , , , , , , , , , , , ,LDLnD_SE_Band4_168hb, , , , , , , , , , , , , , , ,LDLnD_SE_Band4_264ha, , , , , , , , , , , , , , , ,LDLnD_SE_Band4_264hb, , , , , , , , , , , , , , , ,LDLnD_SE_Band4_360ha, , , , , , , , , , , , , , , ,LDLnD_SE_Band4_360hb, , , , , , , , , , , , , , , ,LDLnD_SE_Band4_504ha, , , , , , , , , , , , , , , ,LDLnD_SE_Band4_504hb, , , , , , , , , , , , , , , , 
Peptide, UniqueToProtein, Exchangeable Hydrogens, Charge, m/z(Sequence), M0, M1, M2, M3, M4, M5, Total Labeling, m/z(Precursor), IonScore, Expectn, Error(ppm), Scan, I0, I1, I2, I3, I4, I5, Start Elution (min), End Elution (min), I0 Peak Width, Total Labeling, Net Labeling,m/z(Precursor), IonScore, Expectn, Error(ppm), Scan, I0, I1, I2, I3, I4, I5, Start Elution (min), End Elution (min), I0 Peak Width, Total Labeling, Net Labeling,m/z(Precursor), IonScore, Expectn, Error(ppm), Scan, I0, I1, I2, I3, I4, I5, Start Elution (min), End Elution (min), I0 Peak Width, Total Labeling, Net Labeling,m/z(Precursor), IonScore, Expectn, Error(ppm), Scan, I0, I1, I2, I3, I4, I5, Start Elution (min), End Elution (min), I0 Peak Width, Total Labeling, Net Labeling,m/z(Precursor), IonScore, Expectn, Error(ppm), Scan, I0, I1, I2, I3, I4, I5, Start Elution (min), End Elution (min), I0 Peak Width, Total Labeling, Net Labeling,m/z(Precursor), IonScore, Expectn, Error(ppm), Scan, I0, I1, I2, I3, I4, I5, Start Elution (min), End Elution (min), I0 Peak Width, Total Labeling, Net Labeling,m/z(Precursor), IonScore, Expectn, Error(ppm), Scan, I0, I1, I2, I3, I4, I5, Start Elution (min), End Elution (min), I0 Peak Width, Total Labeling, Net Labeling,m/z(Precursor), IonScore, Expectn, Error(ppm), Scan, I0, I1, I2, I3, I4, I5, Start Elution (min), End Elution (min), I0 Peak Width, Total Labeling, Net Labeling,m/z(Precursor), IonScore, Expectn, Error(ppm), Scan, I0, I1, I2, I3, I4, I5, Start Elution (min), End Elution (min), I0 Peak Width, Total Labeling, Net Labeling,m/z(Precursor), IonScore, Expectn, Error(ppm), Scan, I0, I1, I2, I3, I4, I5, Start Elution (min), End Elution (min), I0 Peak Width, Total Labeling, Net Labeling,m/z(Precursor), IonScore, Expectn, Error(ppm), Scan, I0, I1, I2, I3, I4, I5, Start Elution (min), End Elution (min), I0 Peak Width, Total Labeling, Net Labeling,m/z(Precursor), IonScore, Expectn, Error(ppm), Scan, I0, I1, I2, I3, I4, I5, Start Elution (min), End Elution (min), I0 Peak Width, Total Labeling, Net Labeling
IQAEVEAQLAR,Yes, 33, 2,  614.33821,49.906,33.055,12.580,3.499,0.784,0.149,72.589, 614.33864,   47.96000, 1.200000e-04, -0.7, 9768,6.336080e+05,4.420220e+05,1.256381e+06,3.494523e+05,1.069140e+05,0.000000e+00,40.463726, 41.073536,0.000100,0.410942,0.595702, 614.34001,   53.24000, 5.400000e-05, -2.9, 10384,1.464258e+06,1.137459e+06,3.697987e+06,1.028565e+06,2.303609e+05,0.000000e+00,39.993603, 40.534607,0.000100,0.437196,0.662937, 614.33864,    0.00000, 0.000000e+00, -0.7, 9768,2.725250e+05,4.795610e+05,1.979955e+06,5.526940e+05,2.409150e+05,7.084700e+04,40.064537, 40.614258,0.000100,0.637641,0.869668, 614.33864,    0.00000, 0.000000e+00, -0.7, 9768,1.979510e+05,1.951590e+05,1.382199e+06,8.086160e+05,4.032920e+05,7.006100e+04,40.208221, 40.373356,0.000100,0.496449,0.874615, 614.33864,    0.00000, 0.000000e+00, -0.7, 9768,1.011410e+05,1.538900e+04,1.004220e+05,0.000000e+00,0.000000e+00,0.000000e+00,40.917988, 40.917988,0.000100,0.132060,0.385256,, , , , , , , , , , , , , , , , 614.33864,    0.00000, 0.000000e+00, -0.7, 9768,5.038510e+05,3.385340e+05,4.443320e+05,3.816210e+05,0.000000e+00,0.000000e+00,40.387135, 40.721443,0.000100,0.401876,0.427639, 614.84111,   27.38000, 2.300000e-02, -819.3, 10266,1.351055e+06,1.465401e+06,1.112726e+06,5.982130e+05,1.827010e+05,1.077130e+05,40.920189, 41.618126,0.000100,0.520300,0.447211, 614.84125,   30.63000, 8.700000e-03, -819.5, 10372,4.658429e+06,2.520471e+06,1.336943e+06,0.000000e+00,0.000000e+00,0.000000e+00,40.458710, 40.814610,0.000100,0.351094,-0.000000, 614.84095,   32.88000, 1.800000e-03, -819.0, 9851,2.800711e+06,1.367144e+06,8.200830e+05,3.711400e+04,0.000000e+00,0.000000e+00,40.539101, 40.940945,0.000100,0.328021,0.015369, 614.84069,   35.27000, 3.000000e-03, -818.6, 10042,2.038463e+07,1.449363e+07,6.028126e+06,2.292585e+06,1.405610e+05,6.916568e+04,40.394161, 40.935181,0.000100,0.415549,0.065128, 614.84178,    27.73000, 3.300000e-02, -820.4, 9925, 2.032187e+07,1.347649e+07,6.348481e+06,1.929698e+06,1.408800e+05,1.978500e+04,40.083992, 40.502293,0.000100,0.398732,0.049072,
mSQSIIVSGESGAGK,Yes, 32, 2,  733.86140,43.110,32.600,16.052,5.910,1.765,0.446,91.724, 733.85947,   53.23000, 1.000000e-05,  2.6, 6246,8.080840e+05,6.130310e+05,2.767520e+05,3.597100e+04,0.000000e+00,0.000000e+00,31.682993, 32.076698,0.000100,0.431373,0.000000, 733.85997,   73.92000, 2.000000e-07,  1.9, 6600,1.593569e+06,1.189625e+06,4.810040e+05,1.152720e+05,0.000000e+00,0.000000e+00,31.089497, 31.427235,0.000100,0.427432,-0.000000, 733.86095,   61.26000, 2.100000e-06,  0.6, 6769,1.107567e+06,1.080087e+06,8.502960e+05,4.385560e+05,1.289770e+05,0.000000e+00,31.156555, 31.480339,0.000100,0.493719,0.305760, 733.85829,   44.65000, 6.800000e-05,  4.3, 6753,1.134288e+06,1.277086e+06,8.753730e+05,3.676050e+05,3.990500e+04,0.000000e+00,31.050083, 31.361490,0.000100,0.529609,0.311967, 733.85947,    0.00000, 0.000000e+00,  2.6, 6246,0.000000e+00,0.000000e+00,0.000000e+00,0.000000e+00,0.000000e+00,0.000000e+00,1950.715210, 1950.715210,0.000000,0.000000,0.000000,, , , , , , , , , , , , , , , , 733.85947,    0.00000, 0.000000e+00,  2.6, 6246,6.143840e+05,8.291560e+05,8.064380e+05,5.136620e+05,1.244100e+05,0.000000e+00,32.677059, 32.883270,0.000100,0.574391,0.524872, 733.85947,    0.00000, 0.000000e+00,  2.6, 6246,6.106450e+05,9.420300e+05,7.340240e+05,5.233220e+05,1.245550e+05,0.000000e+00,32.738865, 32.973091,0.000100,0.606714,0.535385, 734.86357,   15.41000, 3.600000e-02, -1366.6, 6679,6.553760e+05,1.092870e+06,9.739880e+05,5.819550e+05,2.013520e+05,9.582200e+04,32.249557, 32.483562,0.000100,0.625124,0.585522, 734.36180,   23.52000, 1.000000e-02, -682.3, 6316,4.326450e+05,7.608200e+05,6.253690e+05,4.254780e+05,1.619540e+05,2.786300e+04,32.458946, 32.699959,0.000100,0.637488,0.598670, 734.35933,   35.25000, 6.800000e-03, -679.0, 6384,1.133076e+06,1.947280e+06,1.673017e+06,1.078453e+06,4.788980e+05,1.321430e+05,32.246540, 32.653965,0.000100,0.632161,0.598987, 734.36152,    64.54000, 6.900000e-06, -682.0, 6325, 1.481227e+06,2.482348e+06,2.014378e+06,1.227157e+06,5.592830e+05,1.081830e+05,32.107117, 32.487133,0.000100,0.626290,0.570900,
YLTESYGTGQDIDDR,Yes, 26, 2,  866.88666,37.854,34.677,17.983,6.774,2.048,0.524,101.774, 866.88793,   98.16000, 6.300000e-10, -1.5, 11247,1.366628e+06,1.056851e+06,5.486090e+05,9.831500e+04,0.000000e+00,0.000000e+00,44.339500, 44.621620,0.000100,0.436088,0.000000, 867.38634,   71.43000, 2.000000e-07, -576.7, 11948,2.453591e+06,2.145599e+06,9.864800e+05,3.995890e+05,0.000000e+00,0.000000e+00,43.927910, 44.220894,0.000100,0.466517,-0.000000, 867.38823,   55.96000, 6.600000e-06, -578.9, 12135,1.566372e+06,2.037368e+06,1.575968e+06,1.006696e+06,2.231770e+05,1.834400e+04,43.937878, 44.270309,0.000100,0.565348,0.372620, 867.38768,   70.54000, 2.400000e-07, -578.3, 12163,1.646840e+06,2.165917e+06,1.880874e+06,1.013716e+06,3.439150e+05,1.259750e+05,43.861504, 44.259697,0.000100,0.568071,0.405218, 866.88793,    0.00000, 0.000000e+00, -1.5, 11247,7.580800e+04,1.306670e+05,1.317120e+05,5.139200e+04,0.000000e+00,0.000000e+00,45.275723, 45.382938,0.000100,0.632847,0.533830,, , , , , , , , , , , , , , , , 866.88793,    0.00000, 0.000000e+00, -1.5, 11247,4.976440e+05,8.457420e+05,7.043550e+05,5.158520e+05,1.936050e+05,3.438600e+04,44.942871, 45.196636,0.000100,0.629560,0.542026, 867.38793,   51.82000, 1.400000e-05, -578.6, 11608,6.350600e+05,1.120869e+06,9.555600e+05,7.271950e+05,2.584900e+05,1.089400e+04,44.980656, 45.231155,0.000100,0.638334,0.563010, 867.38878,   62.27000, 4.700000e-06, -579.6, 11794,1.266227e+06,2.286149e+06,2.652944e+06,1.623046e+06,7.200010e+05,1.286330e+05,44.754700, 45.004620,0.000100,0.643555,0.625546, 866.88793,    0.00000, 0.000000e+00, -1.5, 11247,9.260590e+05,1.894595e+06,1.686888e+06,9.115680e+05,3.457710e+05,3.192400e+04,44.740429, 44.995476,0.000100,0.671686,0.588410, 867.38771,   59.96000, 2.400000e-06, -578.3, 11454,3.491496e+06,7.562050e+06,6.662745e+06,3.863966e+06,1.745778e+06,6.366950e+05,44.681976, 44.990402,0.000100,0.684129,0.619444, 867.39037,    40.26000, 1.700000e-04, -581.4, 11352, 4.170762e+06,7.620334e+06,7.187499e+06,4.817190e+06,2.157901e+06,7.281800e+04,44.586403, 44.919464,0.000100,0.646279,0.588071,
QREEESQQQAVLAQEcR,Yes, 55, 3,  696.99574,31.931,33.201,20.556,9.398,3.467,1.082,121.781, 697.33098,   36.55000, 3.900000e-04, -481.4, 5252,3.141790e+05,3.057040e+05,2.423390e+05,6.881800e+04,0.000000e+00,0.000000e+00,29.006742, 29.183775,0.000100,0.493164,0.000000, 697.32744,   47.53000, 5.300000e-05, -476.4, 5538,9.005520e+05,8.392700e+05,7.657430e+05,3.363420e+05,1.078950e+05,4.800900e+04,27.587460, 28.617216,0.000100,0.482388,0.118981, 697.32933,   40.96000, 1.400000e-04, -479.1, 5719,3.821870e+05,3.634730e+05,5.099940e+05,4.296530e+05,1.420690e+05,3.302800e+04,27.551859, 28.606766,0.000100,0.487451,0.414097, 697.32909,   45.54000, 5.400000e-05, -478.7, 5753,4.242040e+05,6.168640e+05,5.644290e+05,4.174160e+05,3.098850e+05,2.650100e+04,28.451591, 28.592651,0.000100,0.592530,0.459218, 697.33098,    0.00000, 0.000000e+00, -481.4, 5252,0.000000e+00,0.000000e+00,0.000000e+00,0.000000e+00,0.000000e+00,0.000000e+00,1779.881348, 1779.881348,0.000000,0.000000,0.000000,, , , , , , , , , , , , , , , , 697.33098,    0.00000, 0.000000e+00, -481.4, 5252,0.000000e+00,0.000000e+00,0.000000e+00,0.000000e+00,0.000000e+00,0.000000e+00,1739.474365, 1739.474365,0.000000,0.000000,0.000000, 697.66582,   33.91000, 9.600000e-04, -962.3, 5546,4.089600e+04,3.741600e+04,4.097200e+04,0.000000e+00,0.000000e+00,0.000000e+00,29.883711, 29.883711,0.000100,0.477781,0.018587, 697.32939,   45.84000, 5.000000e-05, -479.2, 5582,4.021200e+04,1.046750e+05,8.991500e+04,8.164700e+04,7.570400e+04,8.432300e+04,29.456160, 29.456160,0.000100,0.722460,0.785228, 697.66527,   33.41000, 7.400000e-04, -961.5, 5275,1.688510e+05,1.811680e+05,3.026560e+05,2.653530e+05,1.492630e+05,1.617983e+05,29.641401, 29.698668,0.000100,0.517595,0.638884, 697.66521,   33.69000, 8.500000e-04, -961.4, 5309,1.817300e+05,5.661890e+05,7.805440e+05,1.001630e+06,6.874260e+05,4.263520e+05,29.402382, 29.540232,0.000100,0.757019,0.857389, 697.66545,    25.95000, 3.700000e-03, -961.8, 5259, 2.843180e+05,5.313080e+05,9.025070e+05,6.616650e+05,4.403270e+05,3.689890e+05,29.247046, 29.352081,0.000100,0.651411,0.758136,
VVAGVLHLGNIDFEEAGSTSGGcNLK,Yes, 47, 3,  882.10604,21.933,30.811,24.156,13.650,6.143,2.321,156.252, 882.44091,    0.00000, 0.000000e+00, -379.9, 22080,7.682000e+04,9.693100e+04,7.683500e+04,3.374700e+04,1.518755e+04,1.128000e+04,69.285088, 69.445633,0.000100,0.557873,0.053673, 882.44091,   29.11000, 1.900000e-03, -379.9, 22080,2.517900e+05,3.655050e+05,2.202770e+05,1.148050e+05,5.166701e+04,0.000000e+00,68.901649, 69.015999,0.000100,0.592108,-0.000000, 882.44091,    0.00000, 0.000000e+00, -379.9, 22080,1.406370e+05,2.986110e+05,2.142900e+05,1.608100e+05,1.223103e+05,3.317000e+04,68.867836, 69.023949,0.000100,0.679823,0.287101, 882.77697,   17.93000, 2.100000e-02, -761.2, 22268,7.889700e+04,1.231110e+05,1.676200e+05,1.463960e+05,1.038530e+05,3.000200e+04,68.897003, 69.014183,0.000100,0.609436,0.487512, 882.44091,    0.00000, 0.000000e+00, -379.9, 22080,0.000000e+00,0.000000e+00,0.000000e+00,0.000000e+00,0.000000e+00,0.000000e+00,4176.992676, 4176.992676,0.000000,0.000000,0.000000,, , , , , , , , , , , , , , , , 882.77959,   22.69000, 7.400000e-03, -764.2, 21876,0.000000e+00,0.000000e+00,0.000000e+00,0.000000e+00,0.000000e+00,0.000000e+00,4256.060059, 4256.060059,0.000000,0.000000,0.000000, 882.44091,    0.00000, 0.000000e+00, -379.9, 22080,0.000000e+00,0.000000e+00,0.000000e+00,0.000000e+00,0.000000e+00,0.000000e+00,4137.763184, 4137.763184,0.000000,0.000000,0.000000, 882.44091,    0.00000, 0.000000e+00, -379.9, 22080,0.000000e+00,0.000000e+00,0.000000e+00,0.000000e+00,0.000000e+00,0.000000e+00,4134.534668, 4134.534668,0.000000,0.000000,0.000000, 882.77575,   20.35000, 1.200000e-02, -759.8, 21151,2.948500e+04,6.210800e+04,7.492700e+04,6.157100e+04,6.653300e+04,2.113200e+04,70.211601, 70.251129,0.000100,0.678087,0.607143, 882.77916,   21.09000, 1.100000e-02, -763.7, 21550,5.717500e+04,1.401820e+05,1.528690e+05,1.343560e+05,1.573470e+05,3.983200e+04,70.250931, 70.370026,0.000100,0.710297,0.650097, 882.44262,    49.68000, 2.200000e-05, -381.9, 21517, 9.298000e+03,3.103600e+04,4.632600e+04,4.930900e+04,3.750387e+04,1.975100e+04,70.249916, 70.249916,0.000100,0.769475,0.796360,
LSFISVGNK,Yes, 12, 2,  482.77674,56.382,30.999,9.831,2.282,0.427,0.068,59.554, 482.77722,    0.00000, 0.000000e+00, -1.0, 13989,1.216985e+06,5.274680e+05,1.574350e+05,3.655009e+04,0.000000e+00,0.000000e+00,48.601997, 48.965462,0.000100,0.302369,0.000000, 482.77722,    0.00000, 0.000000e+00, -1.0, 13989,2.818542e+06,1.493740e+06,3.253490e+05,1.371480e+05,2.067100e+04,0.000000e+00,48.176395, 48.523407,0.000100,0.346392,0.006477, 482.77722,   46.17000, 8.800000e-04, -1.0, 13989,2.740466e+06,2.078770e+06,7.203360e+05,2.471490e+05,6.351007e+04,0.000000e+00,48.128956, 48.614944,0.000100,0.431348,0.173744, 482.77722,    0.00000, 0.000000e+00, -1.0, 13989,2.893893e+06,2.082005e+06,7.372480e+05,2.282210e+05,1.472470e+05,0.000000e+00,48.028488, 48.409882,0.000100,0.418418,0.164141, 482.78115,   44.22000, 1.200000e-03, -9.1, 14064,1.391650e+05,6.283700e+04,1.631200e+04,0.000000e+00,0.000000e+00,0.000000e+00,51.308449, 51.308449,0.000100,0.311071,-0.000000,, , , , , , , , , , , , , , , , 483.27922,   39.04000, 3.900000e-03, -1041.9, 13780,2.528596e+06,2.328939e+06,7.674670e+05,1.771510e+05,8.164500e+04,2.601100e+04,50.444023, 50.810120,0.000100,0.479449,0.253861, 482.77697,   45.11000, 1.400000e-03, -0.5, 13798,2.328973e+06,1.723024e+06,5.235570e+05,8.979500e+04,7.946300e+04,0.000000e+00,50.338066, 50.580189,0.000100,0.425228,0.147672, 482.77635,   44.40000, 1.700000e-03,  0.8, 13788,1.353497e+06,1.249995e+06,5.744270e+05,6.700600e+04,1.721858e+04,0.000000e+00,49.610481, 50.197666,0.000100,0.480122,0.279360, 482.77640,   44.82000, 1.500000e-03,  0.7, 13175,1.477203e+06,1.199524e+06,5.182860e+05,4.298500e+04,1.104589e+04,0.000000e+00,49.582951, 50.093369,0.000100,0.448131,0.211359, 482.77546,   46.96000, 8.800000e-04,  2.7, 13388,2.442110e+06,2.030954e+06,8.761460e+05,1.595110e+05,4.098966e+04,0.000000e+00,49.445068, 49.807419,0.000100,0.454041,0.228384, 482.77644,    41.97000, 2.900000e-03,  0.6, 13344, 3.413957e+06,3.033948e+06,1.234629e+06,3.533960e+05,9.081244e+04,0.000000e+00,49.232750, 50.347748,0.000100,0.470532,0.256051,
ETDKQILQNR,Yes, 21, 2,  622.83330,50.168,32.862,12.508,3.494,0.788,0.151,72.265, 623.33416,    0.00000, 0.000000e+00, -804.8, 3048,1.601390e+05,1.310380e+05,5.298500e+04,0.000000e+00,0.000000e+00,0.000000e+00,22.031473, 22.559231,0.000100,0.450029,0.111021, 623.33416,    0.00000, 0.000000e+00, -804.8, 3048,5.048010e+05,2.170050e+05,1.468600e+05,0.000000e+00,0.000000e+00,0.000000e+00,22.131695, 22.284409,0.000100,0.300642,0.015418, 623.33416,   29.05000, 3.100000e-02, -804.8, 3048,9.926990e+05,9.776450e+05,4.849970e+05,2.088700e+04,0.000000e+00,0.000000e+00,21.411777, 22.087851,0.000100,0.496180,0.236672, 623.33709,   34.39000, 9.600000e-03, -809.5, 3089,8.244920e+05,1.146095e+06,6.082240e+05,3.891000e+04,1.286000e+04,0.000000e+00,21.883644, 22.157825,0.000100,0.581601,0.405935, 623.33416,    0.00000, 0.000000e+00, -804.8, 3048,1.572100e+04,9.297000e+03,5.610000e+03,0.000000e+00,0.000000e+00,0.000000e+00,22.078600, 22.078600,0.000100,0.371612,0.042129,, , , , , , , , , , , , , , , , 623.33416,    0.00000, 0.000000e+00, -804.8, 3048,0.000000e+00,0.000000e+00,0.000000e+00,0.000000e+00,0.000000e+00,0.000000e+00,1314.950928, 1314.950928,0.000000,0.000000,0.000000, 623.33464,   23.81000, 9.200000e-03, -805.6, 3158,5.378630e+05,5.500870e+05,4.679770e+05,4.064700e+04,0.000000e+00,0.000000e+00,23.408190, 23.598192,0.000100,0.505618,0.377058, 623.33611,   33.58000, 7.300000e-03, -808.0, 3107,8.575060e+05,1.244918e+06,9.285200e+05,2.738710e+05,2.002800e+04,0.000000e+00,22.966393, 23.185450,0.000100,0.592135,0.508934, 623.33416,    0.00000, 0.000000e+00, -804.8, 3048,6.466600e+04,7.733400e+04,3.917600e+04,9.719000e+03,0.000000e+00,0.000000e+00,20.992964, 21.147287,0.000100,0.544606,0.344307, 622.83251,   35.27000, 4.400000e-03,  1.3, 2960,1.508801e+06,1.924632e+06,1.207251e+06,4.418010e+05,1.224000e+04,0.000000e+00,23.112331, 23.400417,0.000100,0.560556,0.426568, 623.33726,    45.68000, 4.900000e-04, -809.8, 2867, 1.161040e+06,1.464966e+06,1.009551e+06,2.927150e+05,2.759800e+04,0.000000e+00,22.423105, 23.172295,0.000100,0.557868,0.436724,
